Time,Theta,Simulation_reset
0.02,0.0
0.04,0.0
0.06,0.0
0.08,0.0
0.1,0.0
0.12000000000000001,0.02388560997943845
0.14,0.028518824157964844
0.16,0.03486733080963121
0.18,0.04059704627949965
0.19999999999999998,0.046612038839856026
0.21999999999999997,0.05292111048202675
0.23999999999999996,0.05861998100529243
0.25999999999999995,0.06462924442964461
0.27999999999999997,0.06530299005242546
0.3,0.07313902444687835
0.32,0.07634131310926986
0.34,0.08277646940909128
0.36000000000000004,0.0887047223778385
0.38000000000000006,0.09441316572175185
0.4000000000000001,0.10035238906810263
0.4200000000000001,0.10659110668670634
0.4400000000000001,0.11223436301351643
0.46000000000000013,0.11847374710529912
0.48000000000000015,0.12411731386992453
0.5000000000000001,0.13035690668263947
0.5200000000000001,0.1360006607203173
0.5400000000000001,0.14194248405476673
0.5600000000000002,0.14788441152290063
0.5800000000000002,0.15382648392322115
0.6000000000000002,0.15976864656037096
0.6200000000000002,0.16600893826494612
0.6400000000000002,0.17165344450010203
0.6600000000000003,0.17789402756065922
0.6800000000000003,0.18383679949326062
0.7000000000000003,0.18383679949326062
0.7200000000000003,0.19542490524225942
0.7400000000000003,0.19583066650516426
0.7600000000000003,0.20159186748316962
0.7800000000000004,0.20748139969077956
0.8000000000000004,0.21312705437438956
0.8200000000000004,0.21907086032319087
0.8400000000000004,0.22501484190230348
0.8600000000000004,0.23095900436610847
0.8800000000000004,0.23690337555304428
0.9000000000000005,0.23755340573880745
0.9200000000000005,0.24531538996496022
0.9400000000000005,0.24303869737706785
0.9600000000000005,0.2546302386449832
0.9800000000000005,0.26057533549739087
1.0000000000000004,0.26652061941661764
1.0200000000000005,0.2724660963185738
1.0400000000000005,0.272466067226632
1.0600000000000005,0.2843576382737778
1.0800000000000005,0.28500800826900796
1.1000000000000005,0.2924830373318575
1.1200000000000006,0.2961597477706709
1.1400000000000006,0.3021062234394936
1.1600000000000006,0.30805290407885155
1.1800000000000006,0.31399979256232463
1.2000000000000006,0.3199468910645302
1.2200000000000006,0.3258942015722177
1.2400000000000007,0.33184172595506656
1.2600000000000007,0.3377894662227003
1.2800000000000007,0.34373742419753367
1.3000000000000007,0.3496856016883424
1.3200000000000007,0.3556340006677333
1.3400000000000007,0.36158262292196974
1.3600000000000008,0.3675314702859117
1.3800000000000008,0.3734805446448315
1.4000000000000008,0.37942984769733135
1.4200000000000008,0.3794298208136339
1.4400000000000008,0.39162720867535616
1.4600000000000009,0.3919812214182809
1.4800000000000009,0.3994671158990271
1.5000000000000009,0.3978549420767821
1.520000000000001,0.4036804968594621
1.540000000000001,0.4115943335254064
1.560000000000001,0.40998620031511296
1.580000000000001,0.4174839997098924
1.600000000000001,0.42117973045909535
1.620000000000001,0.42713093866266816
1.640000000000001,0.4330823910994823
1.660000000000001,0.43933218290714005
1.680000000000001,0.4449860337594222
1.700000000000001,0.45093823423937085
1.720000000000001,0.45159223025090506
1.740000000000001,0.45909481471034164
1.7600000000000011,0.4627944546021811
1.7800000000000011,0.46904549398104567
1.8000000000000012,0.4747007136159484
1.8200000000000012,0.4806545137411504
1.8400000000000012,0.48660866733704805
1.8600000000000012,0.4928613906242543
1.8800000000000012,0.4985177417518853
1.9000000000000012,0.5044725364186863
1.9200000000000013,0.5104274109119192
1.9400000000000013,0.5163823041979081
1.9600000000000013,0.5223371522802766
1.9800000000000013,0.5282918913139333
2.0000000000000013,0.5342464576520405
2.0200000000000014,0.5402007877350508
2.0400000000000014,0.5461548180161052
2.0600000000000014,0.5521084850652017
2.0800000000000014,0.5580617257165468
2.1000000000000014,0.5587212647919989
2.1200000000000014,0.5662426588712232
2.1400000000000015,0.5699212894482669
2.1600000000000015,0.5758735892073511
2.1800000000000015,0.5818256043200015
2.2000000000000015,0.587777404517787
2.2200000000000015,0.5937289395788234
2.2400000000000015,0.59968022917897
2.2600000000000016,0.6056312750204083
2.2800000000000016,0.611582078785595
2.3000000000000016,0.6175326423363817
2.3200000000000016,0.6237816657409219
2.3400000000000016,0.6297317430172117
2.3600000000000017,0.635681588008413
2.3800000000000017,0.6413325271568766
2.4000000000000017,0.6475805833769132
2.4200000000000017,0.6535297318914968
2.4400000000000017,0.6591800076111219
2.4600000000000017,0.6654273558385305
2.4800000000000018,0.671077195542338
2.5000000000000018,0.6773240808235262
2.520000000000002,0.6829734905973252
2.540000000000002,0.6889213177942217
2.560000000000002,0.6948689217298456
2.580000000000002,0.7008163109989447
2.600000000000002,0.7067634872406695
2.620000000000002,0.7127104524455147
2.640000000000002,0.7189557750109205
2.660000000000002,0.7246037542699612
2.680000000000002,0.7246037544441196
2.700000000000002,0.7327790572643379
2.720000000000002,0.7364603067893746
2.740000000000002,0.7424062491565189
2.760000000000002,0.748351988858004
2.780000000000002,0.754596049848673
2.800000000000002,0.7602428731461224
2.820000000000002,0.766188027461879
2.840000000000002,0.7721329872975435
2.860000000000002,0.7783762463628927
2.880000000000002,0.7840223363190384
2.900000000000002,0.7902652091489222
2.920000000000002,0.7962094107814179
2.940000000000002,0.8021534332252482
2.960000000000002,0.8025156696860611
2.980000000000002,0.8100286415954411
3.000000000000002,0.8140102889546652
3.0200000000000022,0.8196553463240369
3.0400000000000023,0.8255986716813872
3.0600000000000023,0.831840244551892
3.0800000000000023,0.8377832144173216
3.1000000000000023,0.8434276100380459
3.1200000000000023,0.8493702584161106
3.1400000000000023,0.8553127400768025
3.1600000000000024,0.8612550598897872
3.1800000000000024,0.8671972196557459
3.2000000000000024,0.8731392217690244
3.2200000000000024,0.879081067927407
3.2400000000000024,0.8850227604204332
3.2600000000000025,0.8909643013048211
3.2800000000000025,0.8969056925299477
3.3000000000000025,0.8975673211651469
3.3200000000000025,0.9050769574696937
3.3400000000000025,0.9090603723870383
3.3600000000000025,0.9147029999941623
3.3800000000000026,0.9206438175222017
3.4000000000000026,0.9265844922786226
3.4200000000000026,0.927245910031943
3.4400000000000026,0.934755831211621
3.4600000000000026,0.9406960025090308
3.4800000000000026,0.944382644639831
3.5000000000000027,0.9503228896947676
3.5200000000000027,0.9562630490275067
3.5400000000000027,0.9622032327628723
3.5600000000000027,0.9681430062697048
3.5800000000000027,0.9740835955161019
3.6000000000000028,0.9800237676450253
3.6200000000000028,0.9859631820131488
3.640000000000003,0.9919040842684586
3.660000000000003,0.9978442258164072
3.680000000000003,1.003784354267844
3.700000000000003,1.0097244685117566
3.720000000000003,1.015664567319244
3.740000000000003,1.0216046494709896
3.760000000000003,1.02784293444704
3.780000000000003,1.033782972105178
3.800000000000003,1.0394247823960914
3.820000000000003,1.0453647902479495
3.840000000000003,1.0516029740702608
3.860000000000003,1.0572447312726174
3.880000000000003,1.0634828621393881
3.900000000000003,1.0691245814722048
3.920000000000003,1.0750644723223672
3.940000000000003,1.075725740087071
3.960000000000003,1.0835267509773274
3.980000000000003,1.0816368782904693
4.000000000000003,1.089138338608024
4.020000000000002,1.0931242232933829
4.040000000000002,1.098765989826456
4.060000000000001,1.1047061114028611
4.080000000000001,1.110646203857855
4.1000000000000005,1.1165862638574469
4.12,1.117247908524402
4.14,1.124750273196651
4.159999999999999,1.12873626613772
4.179999999999999,1.1346761209715088
4.199999999999998,1.1403180645650308
4.219999999999998,1.146556246756159
4.2399999999999975,1.1524962528592888
4.259999999999997,1.1528588280695453
4.279999999999997,1.1603602382565592
4.299999999999996,1.1640481421159727
4.319999999999996,1.1699879322809268
4.339999999999995,1.1759279697924767
4.359999999999995,1.1818679735363486
4.379999999999995,1.187807937898982
4.399999999999994,1.194045958235586
4.419999999999994,1.199985833914955
4.439999999999993,1.205925671859007
4.459999999999993,1.2115673845151604
4.479999999999992,1.21780522919321
4.499999999999992,1.223744943055856
4.519999999999992,1.229684620202017
4.539999999999991,1.2353261886322897
4.559999999999991,1.241265794019466
4.57999999999999,1.2419254700720113
4.59999999999999,1.2497191426841487
4.6199999999999894,1.253107566045274
4.639999999999989,1.25904702311173
4.659999999999989,1.2649867434380357
4.679999999999988,1.2709264303633085
4.699999999999988,1.2768660786210297
4.719999999999987,1.282805687605662
4.739999999999987,1.2887452572753162
4.7599999999999865,1.2946847882457806
4.779999999999986,1.3006242813615494
4.799999999999986,1.3065637370017151
4.819999999999985,1.3125031560044318
4.839999999999985,1.318442539100456
4.859999999999984,1.3243818871320672
4.879999999999984,1.3306192170008277
4.8999999999999835,1.3362604773657247
4.919999999999983,1.3421997275293933
4.939999999999983,1.3481389425739474
4.959999999999982,1.354376131242249
4.979999999999982,1.360017276956457
4.999999999999981,1.3662544034082271
5.019999999999981,1.3718954968360768
5.0399999999999805,1.3781325617987907
5.05999999999998,1.3837736063289245
5.07999999999998,1.3897126251538563
5.099999999999979,1.3959496022986557
5.119999999999979,1.4018885640114889
5.139999999999978,1.4075295247733686
5.159999999999978,1.413468450732988
5.1799999999999775,1.4194073529140914
5.199999999999977,1.425346235463934
5.219999999999977,1.4312850995031074
5.239999999999976,1.4372239461504963
5.259999999999976,1.4431627764085324
5.279999999999975,1.4491015915041505
5.299999999999975,1.4550403924976563
5.3199999999999745,1.4609791806154293
5.339999999999974,1.467215917410379
5.359999999999974,1.4731546782282432
5.379999999999973,1.4787954759458106
5.399999999999973,1.4847342273071449
5.419999999999972,1.4906717055839633
5.439999999999972,1.4913283835387185
5.4599999999999715,1.4988142464388257
5.479999999999971,1.5027960448513016
5.499999999999971,1.508735118287417
5.51999999999997,1.5143763615581587
5.53999999999997,1.5203142267464134
5.559999999999969,1.526254750165046
5.579999999999969,1.532193936574659
5.599999999999969,1.5381331198179244
5.619999999999968,1.5443702455217085
5.639999999999968,1.5503094220101854
5.659999999999967,1.5562486025722384
5.679999999999967,1.5618898439421658
5.699999999999966,1.5618904357117693
5.719999999999966,1.5737682219603149
5.739999999999966,1.5797074206686008
5.759999999999965,1.5859445591306334
5.779999999999965,1.5915858163193033
5.799999999999964,1.5975249354976397
5.819999999999964,1.6037620789080331
5.839999999999963,1.609403455458128
5.859999999999963,1.6153428939349925
5.879999999999963,1.621282447823383
5.899999999999962,1.627222122509362
5.919999999999962,1.6331619200690284
5.939999999999961,1.6391018426276416
5.959999999999961,1.6450418923595473
5.9799999999999605,1.6512800131098662
5.99999999999996,1.6569223785035259
6.01999999999996,1.6628628257093647
6.039999999999959,1.669101348900892
6.059999999999959,1.6750420636606576
6.079999999999958,1.6806849761537004
6.099999999999958,1.686923924605436
6.1199999999999575,1.692567117944905
6.139999999999957,1.6985084101839794
6.159999999999957,1.7044498473065854
6.179999999999956,1.7106893851961869
6.199999999999956,1.716631122771211
6.219999999999955,1.7225730180005285
6.239999999999955,1.728217115307351
6.2599999999999545,1.7341593274443898
6.279999999999954,1.740101729293185
6.299999999999954,1.7463421875362415
6.319999999999953,1.7466974968560065
6.339999999999953,1.75448671431874
6.359999999999952,1.7578810400938998
6.379999999999952,1.7638240763641269
6.3999999999999515,1.7697672784563376
6.419999999999951,1.7757106528924942
6.439999999999951,1.7819521713261446
6.45999999999995,1.7878958956389375
6.47999999999995,1.7938398021176054
6.499999999999949,1.7997838893353517
6.519999999999949,1.805728159265576
6.5399999999999485,1.8113746340635546
6.559999999999948,1.817617258463072
6.579999999999948,1.8235620850328074
6.599999999999947,1.829209118675246
6.619999999999947,1.8354523217384517
6.639999999999946,1.8413977259512242
6.659999999999946,1.8473433297403612
6.6799999999999455,1.8529911351203259
6.699999999999945,1.8592351378338414
6.719999999999945,1.8651813391271646
6.739999999999944,1.8651813391271646
6.759999999999944,1.8714243973293438
6.779999999999943,1.8770743633731095
6.799999999999943,1.8830211853190495
6.8199999999999426,1.8889682177511282
6.839999999999942,1.8949154619139839
6.859999999999942,1.9008629195669606
6.879999999999941,1.9068105925701007
6.899999999999941,1.9127584829044861
6.91999999999994,1.9187065922989728
6.93999999999994,1.924654922716377
6.95999999999994,1.9306034759887172
6.979999999999939,1.9365522538307536
6.999999999999939,1.9425012581757093
7.019999999999938,1.9484504907229556
7.039999999999938,1.9491007601060981
7.059999999999937,1.9565803007704494
7.079999999999937,1.960279543913897
7.099999999999937,1.9662294718202382
7.119999999999936,1.97217963488388
7.139999999999936,1.9781300350227597
7.159999999999935,1.9840806741966894
7.179999999999935,1.9900315541707256
7.1999999999999345,1.9959826766903679
7.219999999999934,2.001934043379777
7.239999999999934,2.0078856561970704
7.259999999999933,2.0138375166319515
7.279999999999933,2.019789626511911
7.299999999999932,2.0257419876562865
7.319999999999932,2.031991775378028
7.3399999999999315,2.03794464914676
7.359999999999931,2.043600633866806
7.379999999999931,2.0495543193774823
7.39999999999993,2.055508404842868
7.41999999999993,2.0614627948284316
7.439999999999929,2.067417419847183
7.459999999999929,2.06807086455244
7.4799999999999285,2.0755681292683907
7.499999999999928,2.0795610804898668
7.519999999999928,2.085218953957536
7.539999999999927,2.0911738567415026
7.559999999999927,2.0974256196170864
7.579999999999926,2.103083368631253
7.599999999999926,2.1090378161316043
7.6199999999999255,2.1149919960352626
7.639999999999925,2.1209458334124007
7.659999999999925,2.126899265017977
7.679999999999924,2.1328522277831095
7.699999999999924,2.13880491834348
7.719999999999923,2.1388049731584924
7.739999999999923,2.1507094480410074
7.7599999999999225,2.1566613104290235
7.779999999999922,2.1626129286113196
7.799999999999922,2.1685643003091855
7.819999999999921,2.174515427401883
7.839999999999921,2.180466311982922
7.85999999999992,2.1864169555757726
7.87999999999992,2.1923673599402416
7.8999999999999195,2.198317527031988
7.919999999999919,2.20426745848355
7.939999999999919,2.210217156173218
7.959999999999918,2.2161666219957037
7.979999999999918,2.2221158576290603
7.999999999999917,2.228064864878606
8.019999999999918,2.2340136456740383
8.039999999999917,2.239962201799953
8.059999999999917,2.2406182800241674
8.079999999999917,2.2481209624847964
8.099999999999916,2.251806744342731
8.119999999999916,2.257754639495628
8.139999999999915,2.26370231588095
8.159999999999915,2.269649776555532
8.179999999999914,2.2755970236400747
8.199999999999914,2.2815440589471976
8.219999999999914,2.2874908794950315
8.239999999999913,2.2937335947423274
8.259999999999913,2.299383916607525
8.279999999999912,2.3053301211020196
8.299999999999912,2.311276126346004
8.319999999999911,2.3175179745074814
8.339999999999911,2.323167540734819
8.35999999999991,2.3294089682895316
8.37999999999991,2.3350581663461063
8.39999999999991,2.3410031866398087
8.41999999999991,2.3469480191502594
8.439999999999909,2.352892662890965
8.459999999999908,2.3588371200564753
8.479999999999908,2.364781392498381
8.499999999999908,2.3707254820765478
8.519999999999907,2.376669391000693
8.539999999999907,2.3826131211450474
8.559999999999906,2.3832689797206275
8.579999999999906,2.3907623467139634
8.599999999999905,2.394753582150799
8.619999999999905,2.4003983653740217
8.639999999999905,2.406639818384071
8.659999999999904,2.4122842658986485
8.679999999999904,2.4182269672828958
8.699999999999903,2.424169501415339
8.719999999999903,2.430111872947672
8.739999999999903,2.436352464943789
8.759999999999902,2.436352464943789
8.779999999999902,2.4482364000497183
8.799999999999901,2.4541781323120344
8.8199999999999,2.459821361017675
8.8399999999999,2.4657628087761436
8.8599999999999,2.471704095207181
8.8799999999999,2.477645271685676
8.899999999999899,2.483586498794257
8.919999999999899,2.4895277266215734
8.939999999999898,2.4954689494445033
8.959999999999898,2.501708476411704
8.979999999999897,2.507649673073381
8.999999999999897,2.513292559805161
9.019999999999897,2.5192337425156763
9.039999999999896,2.5251749076536307
9.059999999999896,2.5311160563157173
9.079999999999895,2.5370571872438417
9.099999999999895,2.5429982989531923
9.119999999999894,2.548939390079581
9.139999999999894,2.5548804594938535
9.159999999999894,2.5608215058439012
9.179999999999893,2.566762528008506
9.199999999999893,2.572703524755921
9.219999999999892,2.5786444950910288
9.239999999999892,2.584883675027536
9.259999999999891,2.5905263495068542
9.279999999999891,2.5967654641494544
9.29999999999989,2.597130640898746
9.31999999999989,2.6049397030712935
9.33999999999989,2.6083335684138893
9.35999999999989,2.6145723659606253
9.379999999999889,2.620214906894872
9.399999999999888,2.6261556378688526
9.419999999999888,2.632096333730859
9.439999999999888,2.6380369949082767
9.459999999999887,2.6439776207195522
9.479999999999887,2.6499182104448535
9.499999999999886,2.655858763362846
9.519999999999886,2.6617992792213174
9.539999999999885,2.6677397574140067
9.559999999999885,2.6736801976965476
9.579999999999885,2.6796205994706606
9.599999999999884,2.6855609624959373
9.619999999999884,2.69150128653279
9.639999999999883,2.6974415712258772
9.659999999999883,2.7033818164589407
9.679999999999882,2.7093220217649474
9.699999999999882,2.709983589303043
9.719999999999882,2.7174862344057575
9.739999999999881,2.7211750805893034
9.75999999999988,2.7271150186563333
9.77999999999988,2.733055206678555
9.79999999999988,2.7389953597635097
9.81999999999988,2.7449321732596372
9.839999999999879,2.7511736508295384
9.859999999999879,2.756815568581908
9.879999999999878,2.763053657611567
9.899999999999878,2.763053657611567
9.919999999999877,2.7746354049969684
9.939999999999877,2.7805752660503518
9.959999999999877,2.7865150858427974
9.979999999999876,2.7924548645160256
9.999999999999876,2.7983946024389454
10.019999999999875,2.804334299870637
10.039999999999875,2.810273957300679
10.059999999999874,2.8162135748738115
10.079999999999874,2.8221531533144417
10.099999999999874,2.828092692767239
10.119999999999873,2.8340321938434134
10.139999999999873,2.8399716570399476
10.159999999999872,2.8459110827326914
10.179999999999872,2.851850471539493
10.199999999999871,2.8577898239499357
10.219999999999871,2.8637291406988656
10.23999999999987,2.8637321060938166
10.25999999999987,2.8699157597937752
10.27999999999987,2.877491493174631
10.29999999999987,2.8758990882248474
10.319999999999869,2.8836920990481083
10.339999999999868,2.8870840264422393
10.359999999999868,2.893023889204432
10.379999999999868,2.89926202150153
10.399999999999867,2.9049040632848464
10.419999999999867,2.9108440935564572
10.439999999999866,2.9167840779062737
10.459999999999866,2.9227240198221964
10.479999999999865,2.9233833237256373
10.499999999999865,2.930879145921363
10.519999999999865,2.9345685959495986
10.539999999999864,2.940508362282982
10.559999999999864,2.9464483792759757
10.579999999999863,2.952388362936961
10.599999999999863,2.9583283088666357
10.619999999999862,2.9642682167956353
10.639999999999862,2.970208087477547
10.659999999999862,2.9761479222185336
10.679999999999861,2.9820877219650774
10.69999999999986,2.9880274881288096
10.71999999999986,2.9939672217725763
10.73999999999986,3.0005006396193536
10.75999999999986,3.0058468429772796
10.779999999999859,3.0117862409490175
10.799999999999859,3.017725857649383
10.819999999999858,3.023665448277627
10.839999999999858,3.0296050142363593
10.859999999999857,3.035544556811635
10.879999999999857,3.0414840772858938
