Time,Theta,Simulation_reset
0.02,-1.0377691641478196e-05
0.04,-1.0431999287464093e-05
0.06,0.005310784649292739
0.08,0.009790304120594003
0.1,0.016523904207679005
0.12000000000000001,0.022423490602330277
0.14,0.028514514505091182
0.16,0.03486641164519047
0.18,0.040596135955520155
0.19999999999999998,0.046611133291535684
0.21999999999999997,0.0526202449876876
0.23999999999999996,0.0589189953876992
0.25999999999999995,0.06462455366861372
0.27999999999999997,0.07062389547605216
0.3,0.07662948705060908
0.32,0.08233856557684034
0.34,0.08853955488000785
0.36000000000000004,0.0945427012189604
0.38000000000000006,0.10047893521780842
0.4000000000000001,0.10671652354697818
0.4200000000000001,0.11235947548593388
0.4400000000000001,0.11830082747029702
0.46000000000000013,0.12424238245508408
0.48000000000000015,0.1301840575312511
0.5000000000000001,0.13612582932211673
0.5200000000000001,0.14206769790612744
0.5400000000000001,0.14800967073851995
0.5600000000000002,0.15395175216615742
0.5800000000000002,0.15989395914141832
0.6000000000000002,0.16583630295355373
0.6200000000000002,0.17177879090384054
0.6400000000000002,0.17772142889964196
0.6600000000000003,0.18396220673240996
0.6800000000000003,0.18960720663644173
0.7000000000000003,0.1958482568409168
0.7200000000000003,0.20149359252140056
0.7400000000000003,0.2074370178118654
0.7600000000000003,0.21338067348299905
0.7800000000000004,0.21932445342928053
0.8000000000000004,0.22526846448520688
0.8200000000000004,0.22591684421537686
0.8400000000000004,0.23336444390273678
0.8600000000000004,0.23701635834888868
0.8800000000000004,0.2432588762549381
0.9000000000000005,0.2489056121442997
0.9200000000000005,0.25485052858502016
0.9400000000000005,0.26079565879367433
0.9600000000000005,0.26674095068067116
0.9800000000000005,0.27268646315001244
1.0000000000000004,0.27863211283826383
1.0200000000000005,0.2845780169856116
1.0400000000000005,0.29052406243362494
1.0600000000000005,0.29647030933117313
1.0800000000000005,0.30241681785884
1.1000000000000005,0.3083635320869742
1.1200000000000006,0.3143103961613245
1.1400000000000006,0.32055552030635676
1.1600000000000006,0.32620481341988333
1.1800000000000006,0.3321523389573058
1.2000000000000006,0.33810005812559063
1.2200000000000006,0.3440480200990832
1.2400000000000007,0.3502942382373548
1.2600000000000007,0.35594460114927384
1.2800000000000007,0.3618932305791053
1.3000000000000007,0.36784208185235356
1.3200000000000007,0.3740892104271609
1.3400000000000007,0.3797404937472566
1.3600000000000008,0.3856900045224182
1.3800000000000008,0.3916397744662611
1.4000000000000008,0.3975897785702813
1.4200000000000008,0.403540018678975
1.4400000000000008,0.409490496506034
1.4600000000000009,0.415441213877017
1.4800000000000009,0.42139217254932054
1.5000000000000009,0.4273433742101845
1.520000000000001,0.4335929094502337
1.540000000000001,0.43924651025521816
1.560000000000001,0.44519845483628595
1.580000000000001,0.45115064593789067
1.600000000000001,0.4574011944155557
1.620000000000001,0.4633538914945696
1.640000000000001,0.4690087098569693
1.660000000000001,0.47496203098797235
1.680000000000001,0.48091581961468916
1.700000000000001,0.4868699667588564
1.720000000000001,0.49312268417686766
1.740000000000001,0.4987790326195566
1.7600000000000011,0.5047338253050131
1.7800000000000011,0.510688602376153
1.8000000000000012,0.5166435925147143
1.8200000000000012,0.5225984421516209
1.8400000000000012,0.522598535625987
1.8600000000000012,0.5345077520431374
1.8800000000000012,0.5404620905771224
1.9000000000000012,0.5464161279371691
1.9200000000000013,0.5523698034295677
1.9400000000000013,0.5586217682643778
1.9600000000000013,0.5645746001094996
1.9800000000000013,0.5702284353045173
2.0000000000000013,0.5761807407143402
2.0200000000000014,0.5821327777482859
2.0400000000000014,0.5880845648929549
2.0600000000000014,0.5940361046125135
2.0800000000000014,0.5999873987716656
2.1000000000000014,0.6059384491766173
2.1200000000000014,0.6118892574492272
2.1400000000000015,0.6178398254552396
2.1600000000000015,0.6237901550097964
2.1800000000000015,0.6297402477394077
2.2000000000000015,0.6356901055633938
2.2200000000000015,0.6416397301898149
2.2400000000000015,0.6475891143237114
2.2600000000000016,0.6535382786353142
2.2800000000000016,0.6597858547668666
2.3000000000000016,0.6654359254492336
2.3200000000000016,0.6713844043115799
2.3400000000000016,0.6773326763874254
2.3600000000000017,0.6835793411790444
2.3800000000000017,0.6895271521670082
2.4000000000000017,0.6951761560430904
2.4200000000000017,0.7011235519050781
2.4400000000000017,0.7070707320196473
2.4600000000000017,0.7130177010037452
2.4800000000000018,0.7192630274741546
2.5000000000000018,0.7249110105070954
2.520000000000002,0.730857360347718
2.540000000000002,0.7368035038091053
2.560000000000002,0.7430479801643891
2.580000000000002,0.748695185184351
2.600000000000002,0.7546407324634482
2.620000000000002,0.7605860810722459
2.640000000000002,0.7665312358647076
2.660000000000002,0.7724761986690544
2.680000000000002,0.7787194607827395
2.700000000000002,0.7846640353320906
2.720000000000002,0.7903099523640232
2.740000000000002,0.7962541702245834
2.760000000000002,0.8021982024917588
2.780000000000002,0.8081420550318175
2.800000000000002,0.8140857293752172
2.820000000000002,0.8203276652231938
2.840000000000002,0.8259725489494153
2.860000000000002,0.831915703844936
2.880000000000002,0.8378586857595883
2.900000000000002,0.8385156242632132
2.920000000000002,0.8462831219795558
2.940000000000002,0.8499287846261836
2.960000000000002,0.8558712613522995
2.980000000000002,0.8618135754803568
3.000000000000002,0.8677557296081911
3.0200000000000022,0.873697734786696
3.0400000000000023,0.8796395758080829
3.0600000000000023,0.8855812724733879
3.0800000000000023,0.8915228179682834
3.1000000000000023,0.8974641749997363
3.1200000000000023,0.9034054243482275
3.1400000000000023,0.9096448404074208
3.1600000000000024,0.9152874678179966
3.1800000000000024,0.9212282743055685
3.2000000000000024,0.9271689562957429
3.2200000000000024,0.9334077883819183
3.2400000000000024,0.9390498621078185
3.2600000000000025,0.9449901299517453
3.2800000000000025,0.9509302641912856
3.3000000000000025,0.9568702698382395
3.3200000000000025,0.9628101490694592
3.3400000000000025,0.9690481746608065
3.3600000000000025,0.9746895338844339
3.3800000000000026,0.9806290495220569
3.4000000000000026,0.9865684443039652
3.4200000000000026,0.9928059701718278
3.4400000000000026,0.99844688589693
3.4600000000000026,1.0043859427927075
3.4800000000000026,1.0106231346871133
3.5000000000000027,1.0162637220347952
3.5200000000000027,1.0222024727136827
3.5400000000000027,1.028141120899747
3.5600000000000027,1.0340796350935846
3.5800000000000027,1.0344910822967397
3.6000000000000028,1.0405467732857479
3.6200000000000028,1.0458620774321892
3.640000000000003,1.0518003244167793
3.660000000000003,1.0577384735320676
3.680000000000003,1.0636765321644088
3.700000000000003,1.0696145031034785
3.720000000000003,1.0755523886673979
3.740000000000003,1.0814901910711716
3.760000000000003,1.0874279125088124
3.780000000000003,1.0933655551164727
3.800000000000003,1.0940224192475432
3.820000000000003,1.1017960988555198
3.840000000000003,1.105161451058857
3.860000000000003,1.1110988970673292
3.880000000000003,1.117036282382135
3.900000000000003,1.123271718150409
3.920000000000003,1.1292089067769582
3.940000000000003,1.1348479576443986
3.960000000000003,1.1407850235971262
3.980000000000003,1.146722080931168
4.000000000000003,1.1526590364957205
4.020000000000002,1.1588940368646898
4.040000000000002,1.164532804806478
4.060000000000001,1.1704696901181972
4.080000000000001,1.1764066795950716
4.1000000000000005,1.1823436830801717
4.12,1.1882806805488872
4.14,1.1942176805270381
4.159999999999999,1.2001546840868655
4.179999999999999,1.2060916902040566
4.199999999999998,1.2120286972672618
4.219999999999998,1.218263767459561
4.2399999999999975,1.2182642740452938
4.259999999999997,1.2301377728686287
4.279999999999997,1.2360742141413494
4.299999999999996,1.2417137227604966
4.319999999999996,1.2476501239888877
4.339999999999995,1.2535877290380641
4.359999999999995,1.2595240956268245
4.379999999999995,1.2654610807818414
4.399999999999994,1.271398066334937
4.419999999999994,1.277335714306167
4.439999999999993,1.2832727059333504
4.459999999999993,1.289209695722273
4.479999999999992,1.2951466837635768
4.499999999999992,1.3010836701436328
4.519999999999992,1.3073186681534255
4.539999999999991,1.3129576354657944
4.559999999999991,1.3188946209749346
4.57999999999999,1.3248316024831317
4.59999999999999,1.3307685833013767
4.6199999999999894,1.336705563750343
4.639999999999989,1.3429399354741327
4.659999999999989,1.3485789365170107
4.679999999999988,1.3548133400712967
4.699999999999988,1.360452939788679
4.719999999999987,1.3663904712011963
4.739999999999987,1.3723269562267548
4.7599999999999865,1.3782639701216073
4.779999999999986,1.3842014338306838
4.799999999999986,1.3904364021965097
4.819999999999985,1.3963733911470615
4.839999999999985,1.3963737376732506
4.859999999999984,1.4079494175518181
4.879999999999984,1.41388642816267
4.8999999999999835,1.4198232049872215
4.919999999999983,1.425760469191508
4.939999999999983,1.4264142025937154
4.959999999999982,1.4338892567460813
4.979999999999982,1.4375621353747843
4.999999999999981,1.4434998971252626
5.019999999999981,1.4494377186727836
5.0399999999999805,1.4553755483946311
5.05999999999998,1.4560301362717085
5.07999999999998,1.4638080214884495
5.099999999999979,1.46748623068416
5.119999999999979,1.473424598671476
5.139999999999978,1.4734257184333681
5.159999999999978,1.4853015271653245
5.1799999999999775,1.4909420352467757
5.199999999999977,1.4968805017662647
5.219999999999977,1.502818964463492
5.239999999999976,1.5090553750711846
5.259999999999976,1.5149938350999057
5.279999999999975,1.520932300829184
5.299999999999975,1.52657282644831
5.3199999999999745,1.5325113041625813
5.339999999999974,1.5384497816274616
5.359999999999974,1.5443882666997908
5.379999999999973,1.5503267413144481
5.399999999999973,1.5562651292688234
5.419999999999972,1.5622035980511904
5.439999999999972,1.5681421661645871
5.4599999999999715,1.5740808357805531
5.479999999999971,1.5800196090605958
5.499999999999971,1.5862564272016892
5.51999999999997,1.5918974719865275
5.53999999999997,1.5978365724108674
5.559999999999969,1.603775781908524
5.579999999999969,1.609715105834332
5.599999999999969,1.6156545463878342
5.619999999999968,1.6215941056434384
5.639999999999968,1.627533785739285
5.659999999999967,1.6334735888613423
5.679999999999967,1.6394135170781285
5.699999999999966,1.645353572565654
5.719999999999966,1.651591699159219
5.739999999999966,1.6572340704403723
5.759999999999965,1.6631745236337505
5.779999999999965,1.6691151426370674
5.799999999999964,1.6750558326688756
5.819999999999964,1.6757084900950427
5.839999999999963,1.6834923763319696
5.859999999999963,1.681593250972094
5.879999999999963,1.689378407027629
5.899999999999962,1.6927706932427753
5.919999999999962,1.6987119931821082
5.939999999999961,1.7046534361449153
5.959999999999961,1.7105950290758956
5.9799999999999605,1.7165367743773512
5.99999999999996,1.7224786740667
6.01999999999996,1.728420730322136
6.039999999999959,1.734660901167233
6.059999999999959,1.7403053173942344
6.079999999999958,1.7409584224427663
6.099999999999958,1.7484528552808798
6.1199999999999575,1.7524451433666401
6.139999999999957,1.7583880165860069
6.159999999999957,1.7640330937878015
6.179999999999956,1.7699763054879174
6.199999999999956,1.7759196864747044
6.219999999999955,1.781863242232915
6.239999999999955,1.787806974891529
6.2599999999999545,1.7940488597005955
6.279999999999954,1.799694975096093
6.299999999999954,1.8056392532071972
6.319999999999953,1.811583712714318
6.339999999999953,1.8175283590045939
6.359999999999952,1.8234731939207462
6.379999999999952,1.8297162062225854
6.3999999999999515,1.8353634340149902
6.419999999999951,1.8416068416884714
6.439999999999951,1.8472544555022126
6.45999999999995,1.853200266017455
6.47999999999995,1.8591462735929654
6.499999999999949,1.8650924833338247
6.519999999999949,1.871038897256976
6.5399999999999485,1.8769855171534933
6.559999999999948,1.8829323449099888
6.579999999999948,1.888879411878385
6.599999999999947,1.8948266317906068
6.619999999999947,1.9010721148312795
6.639999999999946,1.9067217694833605
6.659999999999946,1.912967694927292
6.6799999999999455,1.9186177797172415
6.699999999999945,1.9245661185942136
6.719999999999945,1.9252194019886593
6.739999999999944,1.932723168409031
6.759999999999944,1.9364241690891166
6.779999999999943,1.9423731792447714
6.799999999999943,1.9483224165694595
6.8199999999999426,1.954271883777145
6.839999999999942,1.9602215827588878
6.859999999999942,1.9661715154659645
6.879999999999941,1.9724197458387933
6.899999999999941,1.9780720858943133
6.91999999999994,1.984022733747181
6.93999999999994,1.9899736189814172
6.95999999999994,1.9959247468812351
6.979999999999939,2.001876118948278
6.999999999999939,2.007827737000849
7.019999999999938,2.0140776930904316
7.039999999999938,2.0200298376096697
7.059999999999937,2.0259822046681353
7.079999999999937,2.031636699986513
7.099999999999937,2.0375895835706848
7.119999999999936,2.0435427353280993
7.139999999999936,2.0494963400247883
7.159999999999935,2.0554503598917915
7.179999999999935,2.0617030689421774
7.1999999999999345,2.0673593834198254
7.219999999999934,2.0733141402687907
7.239999999999934,2.0792689973517207
7.259999999999933,2.085223893528924
7.279999999999933,2.091477252877882
7.299999999999932,2.097133543491809
7.319999999999932,2.103386740857829
7.3399999999999315,2.1090425854647226
7.359999999999931,2.114996720801244
7.379999999999931,2.1209505102204456
7.39999999999993,2.1209505102204456
7.41999999999993,2.1328568034007693
7.439999999999929,2.1332665124346333
7.459999999999929,2.139041907820856
7.4799999999999285,2.144993999006776
7.499999999999928,2.1506754045656713
7.519999999999928,2.1510351717746605
7.539999999999927,2.1510351717746605
7.559999999999927,2.1625218836897293
7.579999999999926,2.168174521765117
7.599999999999926,2.1741256624817638
7.6199999999999255,2.180076561981195
7.639999999999925,2.1860272317921647
7.659999999999925,2.191977647851508
7.679999999999924,2.1979278265469544
7.699999999999924,2.2038777697842047
7.719999999999923,2.209827479223148
7.739999999999923,2.2157769566357506
7.7599999999999225,2.221726203930726
7.779999999999922,2.227675222795588
7.799999999999922,2.2339226446868263
7.819999999999921,2.239572579969973
7.839999999999921,2.2455209272085153
7.85999999999992,2.2517676572884344
7.87999999999992,2.257416947348934
7.8999999999999195,2.2633646419876516
7.919999999999919,2.2696106972130874
7.939999999999919,2.2752593685256657
7.959999999999918,2.2812064090658297
7.979999999999918,2.287153248282905
7.999999999999917,2.2930998812456536
8.019999999999918,2.2990463032306483
8.039999999999917,2.3049925210365125
8.059999999999917,2.310938536569854
8.079999999999917,2.317182876517608
8.099999999999916,2.322829965951484
8.119999999999916,2.3287753885067497
8.139999999999915,2.32943635794912
8.159999999999915,2.336955936256387
8.179999999999914,2.3406428842537323
8.199999999999914,2.346587730476792
8.219999999999914,2.352830866458764
8.239999999999913,2.3584768497946977
8.259999999999913,2.364421134833214
8.279999999999912,2.370365234330671
8.299999999999912,2.376309153131619
8.319999999999911,2.37697077480485
8.339999999999911,2.384488166631244
8.35999999999991,2.3881758593195848
8.37999999999991,2.3941192515663356
8.39999999999991,2.4000624682184095
8.41999999999991,2.4060055132391267
8.439999999999909,2.411948389419799
8.459999999999908,2.417891098789986
8.479999999999908,2.423833643399756
8.499999999999908,2.4300744137326586
8.519999999999907,2.435718244001894
8.539999999999907,2.4363801199845834
8.559999999999906,2.443895205526125
8.579999999999906,2.4478820059450848
8.599999999999905,2.4535253964060435
8.619999999999905,2.4594669993840563
8.639999999999905,2.4654084485361514
8.659999999999904,2.47134975830764
8.679999999999904,2.471761827883132
8.699999999999903,2.4781242532321963
8.719999999999903,2.4838099887984435
8.739999999999903,2.4894525210536993
8.759999999999902,2.495393245521763
8.779999999999902,2.50133384216117
8.799999999999901,2.5072744468521857
8.8199999999999,2.513215078135571
8.8399999999999,2.519155707465938
8.8599999999999,2.5253946175409308
8.8799999999999,2.5310362688890233
8.899999999999899,2.536976082663948
8.919999999999899,2.5429172420992883
8.939999999999898,2.5488587246428267
8.959999999999898,2.5547981771582595
8.979999999999897,2.5607398408077455
8.999999999999897,2.5666803738385857
9.019999999999897,2.572620888634956
9.039999999999896,2.578561383857058
9.059999999999896,2.5845018583905106
9.079999999999895,2.5904423112507415
9.099999999999895,2.5963827412182074
9.119999999999894,2.602323147430174
9.139999999999894,2.6082635289052316
9.159999999999894,2.614203884789453
9.179999999999893,2.620144213991761
9.199999999999893,2.626084516014091
9.219999999999892,2.6320247897736855
9.239999999999892,2.637965034658552
9.259999999999891,2.643905249941381
9.279999999999891,2.649845435136255
9.29999999999989,2.655785589288728
9.31999999999989,2.6617257121477333
9.33999999999989,2.667665803115512
9.35999999999989,2.673605861480449
9.379999999999889,2.6795458869993265
9.399999999999888,2.6854858791984606
9.419999999999888,2.6914258376065465
9.439999999999888,2.6973657619875198
9.459999999999887,2.7033056519911143
9.479999999999887,2.709245507385675
9.499999999999886,2.715185327941626
9.519999999999886,2.7158462111955792
9.539999999999885,2.7233461050278622
9.559999999999885,2.727032706388738
9.579999999999885,2.732972366188469
9.599999999999884,2.7389122561105634
9.619999999999884,2.739572480459679
9.639999999999883,2.739572480459679
9.659999999999883,2.7507599718293205
9.679999999999882,2.7569977701479016
9.699999999999882,2.7629377116726777
9.719999999999882,2.7685795259060764
9.739999999999881,2.7745194030081746
9.75999999999988,2.780459236278718
9.77999999999988,2.7863990288450577
9.79999999999988,2.7923387807351805
9.81999999999988,2.798278492203406
9.839999999999879,2.8042181635021657
9.859999999999879,2.810157795119913
9.879999999999878,2.8160973874283513
9.899999999999878,2.8220369408040584
9.919999999999877,2.8279764556195226
9.939999999999877,2.833915932369937
9.959999999999877,2.839855371549575
9.979999999999876,2.845794773651677
9.999999999999876,2.8517341391735167
10.019999999999875,2.852393163759995
10.039999999999875,2.8601843383117496
10.059999999999874,2.863571719950428
10.079999999999874,2.869511009147779
10.099999999999874,2.8754505547336473
10.119999999999873,2.8813900694771255
10.139999999999873,2.8873295485478994
10.159999999999872,2.89326899122091
10.179999999999872,2.899208397917226
10.199999999999871,2.9054457872448265
10.219999999999871,2.9110871034636796
10.23999999999987,2.911090023596218
10.25999999999987,2.9229656805818314
10.27999999999987,2.9289049194796073
10.29999999999987,2.9348441272255714
10.319999999999869,2.940783305006131
10.339999999999868,2.9414411973587202
10.359999999999868,2.948931576057414
10.379999999999868,2.9526166416722384
10.399999999999867,2.9532746396814686
10.419999999999867,2.960767055515942
10.439999999999866,2.964454262663482
10.459999999999866,2.9703937175023483
10.479999999999865,2.9763334206596856
10.499999999999865,2.982273098361316
10.519999999999865,2.9882127460857024
10.539999999999864,2.994450347145018
10.559999999999864,3.0000919485438033
10.579999999999863,3.006031511360964
10.599999999999863,3.0119710441721224
10.619999999999862,3.017910551223143
10.639999999999862,3.0241480069287814
10.659999999999862,3.0297894902218725
10.679999999999861,3.035728930890817
10.69999999999986,3.041668347965169
10.71999999999986,3.0479057116558557
10.73999999999986,3.0535471228363185
10.75999999999986,3.059486489462229
10.779999999999859,3.065425837947482
10.799999999999859,3.071365172642937
10.819999999999858,3.0773044949301327
10.839999999999858,3.0832438063096292
