Time,Theta,Simulation_reset
0.02,-1.0377691641478196e-05
0.04,-1.0431999287464093e-05
0.06,0.005310784649292739
0.08,0.009790304120594003
0.1,0.01622316350298037
0.12000000000000001,0.022417165484767285
0.14,0.028514514505091182
0.16,0.03456642946478786
0.18,0.04059505649908137
0.19999999999999998,0.046611133291535684
0.21999999999999997,0.0526202449876876
0.23999999999999996,0.058619046222804026
0.25999999999999995,0.0646245345651989
0.27999999999999997,0.07062387637263734
0.3,0.07662948705060908
0.32,0.08233856557684034
0.34,0.08817016847432753
0.36000000000000004,0.09477457661801407
0.38000000000000006,0.10047920283897441
0.4000000000000001,0.10641873570822505
0.4200000000000001,0.11235947520848746
0.4400000000000001,0.11830082747029702
0.46000000000000013,0.12454035062447258
0.48000000000000015,0.13018405686755646
0.5000000000000001,0.13612582932211673
0.5200000000000001,0.14206769790612744
0.5400000000000001,0.14800967073851995
0.5600000000000002,0.15395175216615742
0.5800000000000002,0.15989395914141832
0.6000000000000002,0.16583630295355373
0.6200000000000002,0.17177879055439046
0.6400000000000002,0.17772142569639865
0.6600000000000003,0.18396220352916665
0.6800000000000003,0.1896071767782539
0.7000000000000003,0.1896071767782539
0.7200000000000003,0.20179154207134253
0.7400000000000003,0.20179154207134253
0.7600000000000003,0.21367862378554578
0.7800000000000004,0.2193244780636797
0.8000000000000004,0.2193244780636797
0.8200000000000004,0.23121257390284242
0.8400000000000004,0.23715692130705565
0.8600000000000004,0.2431014537053174
0.8800000000000004,0.24904617293256295
0.9000000000000005,0.25499108550964605
0.9200000000000005,0.26093619011443236
0.9400000000000005,0.2668814853025831
0.9600000000000005,0.27282697233824266
0.9800000000000005,0.2787726534221511
1.0000000000000004,0.28471853104810396
1.0200000000000005,0.29066460755579115
1.0400000000000005,0.2966108852588155
1.0600000000000005,0.3025573954272295
1.0800000000000005,0.3085040820672918
1.1000000000000005,0.3085040820672918
1.1200000000000006,0.3203981382318411
1.1400000000000006,0.3263453961212624
1.1600000000000006,0.33259098160477457
1.1800000000000006,0.33824063899315243
1.2000000000000006,0.3441886051331984
1.2200000000000006,0.3504348241375921
1.2400000000000007,0.3560851877913381
1.2600000000000007,0.3620338180609169
1.2800000000000007,0.3679826700752855
1.3000000000000007,0.37422979944839774
1.3200000000000007,0.37988105341024486
1.3400000000000007,0.3858305951039913
1.3600000000000008,0.3917803657688452
1.3800000000000008,0.3977303706522099
1.4000000000000008,0.4036806115410051
1.4200000000000008,0.4036806115410051
1.4400000000000008,0.4155818338941894
1.4600000000000009,0.4215327901266706
1.4800000000000009,0.4274840181638611
1.5000000000000009,0.43343544276506785
1.520000000000001,0.4393871616571742
1.540000000000001,0.44533907803056605
1.560000000000001,0.45129129466465956
1.580000000000001,0.45724371311634154
1.600000000000001,0.46319638556497655
1.620000000000001,0.46914931475968547
1.640000000000001,0.47510263422809534
1.660000000000001,0.4810564241668717
1.680000000000001,0.4870105723453455
1.700000000000001,0.4876614921451814
1.720000000000001,0.49512258553394556
1.740000000000001,0.49877351213431415
1.7600000000000011,0.5047283023016702
1.7800000000000011,0.5106831759068012
1.8000000000000012,0.516638069303035
1.8200000000000012,0.522592824024587
1.8400000000000012,0.5285476607522321
1.8600000000000012,0.5345022313028265
1.8800000000000012,0.5404565669658988
1.9000000000000012,0.5467092564230764
1.9200000000000013,0.5523642767916098
1.9400000000000013,0.5583175298276895
1.9600000000000013,0.5642703144614694
1.9800000000000013,0.5702229136708663
2.0000000000000013,0.5761752163687908
2.0200000000000014,0.5821272533176047
2.0400000000000014,0.5883777888419168
2.0600000000000014,0.5940305650778808
2.0800000000000014,0.5999818453077961
2.1000000000000014,0.6059329112767221
2.1200000000000014,0.611883706959229
2.1400000000000015,0.6178342886876537
2.1600000000000015,0.623784606757596
2.1800000000000015,0.6297347119348269
2.2000000000000015,0.6359832411449873
2.2200000000000015,0.6419328684166955
2.2400000000000015,0.647583595606775
2.2600000000000016,0.6535327620671486
2.2800000000000016,0.6597803459465373
2.3000000000000016,0.6654304052416146
2.3200000000000016,0.671378893886288
2.3400000000000016,0.6773271575196637
2.3600000000000017,0.6835738156613711
2.3800000000000017,0.6892230225298069
2.4000000000000017,0.6951706332036716
2.4200000000000017,0.7011180262030939
2.4400000000000017,0.7070652062561337
2.4600000000000017,0.7130121716821242
2.4800000000000018,0.7189589319406526
2.5000000000000018,0.7249054818110683
2.520000000000002,0.7308518323426282
2.540000000000002,0.7370965175566574
2.560000000000002,0.7430424538197105
2.580000000000002,0.7486896598900914
2.600000000000002,0.7549337242237504
2.620000000000002,0.7608790641129579
2.640000000000002,0.7665257067770371
2.660000000000002,0.772470672382409
2.680000000000002,0.778415445222956
2.700000000000002,0.7846585117517193
2.720000000000002,0.7906029002167247
2.740000000000002,0.7962486405823069
2.760000000000002,0.8021926759953265
2.780000000000002,0.8081365284252767
2.800000000000002,0.8140802027756098
2.820000000000002,0.8200237009830116
2.840000000000002,0.8262654554219129
2.860000000000002,0.8319101825783912
2.880000000000002,0.8378531707299439
2.900000000000002,0.8437959794748384
2.920000000000002,0.8497386343736635
2.940000000000002,0.8556811118932542
2.960000000000002,0.8616234416580716
2.980000000000002,0.867565596430907
3.000000000000002,0.8735076092245835
3.0200000000000022,0.8794494494351807
3.0400000000000023,0.8853911346027988
3.0600000000000023,0.8913326773262168
3.0800000000000023,0.8975724176709015
3.1000000000000023,0.9035136536630206
3.1200000000000023,0.9035136424274222
3.1400000000000023,0.9153956972492425
3.1600000000000024,0.9210381851112233
3.1800000000000024,0.9269788641344319
3.2000000000000024,0.9329194032319951
3.2200000000000024,0.9388598073041007
3.2400000000000024,0.9448000784563275
3.2600000000000025,0.9507402327712517
3.2800000000000025,0.9569785283859811
3.3000000000000025,0.9629184221015756
3.3200000000000025,0.9688581596335231
3.3400000000000025,0.9747978074836039
3.3600000000000025,0.9807373052055482
3.3800000000000026,0.9863784624336319
3.4000000000000026,0.9926159792566551
3.4200000000000026,0.9982568861982952
3.4400000000000026,1.0041959483487144
3.4600000000000026,1.010433127836887
3.4800000000000026,1.0104331071065211
3.5000000000000027,1.0220124752440654
3.5200000000000027,1.0279511127732393
3.5400000000000027,1.0338896465496596
3.5600000000000027,1.0398280817147594
3.5800000000000027,1.0457664204987636
3.6000000000000028,1.0520028559887407
3.6200000000000028,1.057941000179049
3.640000000000003,1.0638790575487085
3.660000000000003,1.069817047978908
3.680000000000003,1.0754567623635407
3.700000000000003,1.0816927549711868
3.720000000000003,1.087332297225601
3.740000000000003,1.0935681203543708
3.760000000000003,1.09950566363389
3.780000000000003,1.105145031008423
3.800000000000003,1.1113805695231769
3.820000000000003,1.1170197591522089
3.840000000000003,1.1170197388945646
3.860000000000003,1.1288942661760235
3.880000000000003,1.1348314218569286
3.900000000000003,1.1407685164164054
3.920000000000003,1.1467055519551022
3.940000000000003,1.1526425307503418
3.960000000000003,1.1585794549648916
3.980000000000003,1.1645163268798167
4.000000000000003,1.170453148661474
4.020000000000002,1.170453148661474
4.040000000000002,1.182326650964604
4.060000000000001,1.1882633619699317
4.080000000000001,1.1942000060210078
4.1000000000000005,1.2004347115851866
4.12,1.2060731791757802
4.14,1.2123078061801975
4.159999999999999,1.2182442772901971
4.179999999999999,1.2241807724448985
4.199999999999998,1.2301171548383907
4.219999999999998,1.2357555186252152
4.2399999999999975,1.24169191682501
4.259999999999997,1.2476282909059673
4.279999999999997,1.253564646256689
4.299999999999996,1.2595009851190775
4.319999999999996,1.2654373096773528
4.339999999999995,1.271373622232676
4.359999999999995,1.277309925028371
4.379999999999995,1.2832462203080883
4.399999999999994,1.289182510315723
4.419999999999994,1.2954168146018192
4.439999999999993,1.3013530946111211
4.459999999999993,1.3072894093303133
4.479999999999992,1.3072893793439702
4.499999999999992,1.3191619926213203
4.519999999999992,1.3250983258867588
4.539999999999991,1.3310346089756968
4.559999999999991,1.3369709658237245
4.57999999999999,1.342907276400081
4.59999999999999,1.3488436658019003
4.6199999999999894,1.3547800128326832
4.639999999999989,1.3604183940472738
4.659999999999989,1.3663548231828313
4.679999999999988,1.372291275356542
4.699999999999988,1.378227755894851
4.719999999999987,1.3844622450160096
4.739999999999987,1.3901008079848256
4.7599999999999865,1.3960373904171455
4.779999999999986,1.401974007070971
4.799999999999986,1.4079106632650074
4.819999999999985,1.4141453291344919
4.839999999999985,1.420082066228955
4.859999999999984,1.4257209209938924
4.879999999999984,1.4316577584570869
4.8999999999999835,1.4375946789914895
4.919999999999983,1.4435315904248922
4.939999999999983,1.449766577304759
4.959999999999982,1.4554056397204014
4.979999999999982,1.4613427859110444
4.999999999999981,1.4672798952389972
5.019999999999981,1.473515119961557
5.0399999999999805,1.4794523873982703
5.05999999999998,1.4850918105712092
5.07999999999998,1.491029258519328
5.099999999999979,1.4972647236939238
5.119999999999979,1.502904402198701
5.139999999999978,1.5088421059324881
5.159999999999978,1.5147798226494567
5.1799999999999775,1.5147797891109571
5.199999999999977,1.5266555693990254
5.219999999999977,1.5325935378043667
5.239999999999976,1.5388295696116405
5.259999999999976,1.544767746315534
5.279999999999975,1.550408078304066
5.299999999999975,1.5563464497363202
5.3199999999999745,1.562284914929753
5.339999999999974,1.5682234793765848
5.359999999999974,1.5741621451857017
5.379999999999973,1.5801009146372538
5.399999999999973,1.5860397898342682
5.419999999999972,1.5919787729312058
5.439999999999972,1.5979178998535226
5.4599999999999715,1.603857105206534
5.479999999999971,1.6097964586806779
5.499999999999971,1.6160338683346895
5.51999999999997,1.6216754155875366
5.53999999999997,1.627615057909513
5.559999999999969,1.6335548901541344
5.579999999999969,1.6394948137612237
5.599999999999969,1.6454348309080014
5.619999999999968,1.6513750109640588
5.639999999999968,1.657315322446248
5.659999999999967,1.6635537104777989
5.679999999999967,1.6691963447916918
5.699999999999966,1.6751370664984544
5.719999999999966,1.681077924656095
5.739999999999966,1.6870189247329028
5.759999999999965,1.6929600688717896
5.779999999999965,1.6989013590371724
5.799999999999964,1.704842797418217
5.819999999999964,1.7110823700101294
5.839999999999963,1.7170240754140471
5.859999999999963,1.7226680188667856
5.879999999999963,1.7286100739065509
5.899999999999962,1.7348502730587674
5.919999999999962,1.734850204410409
5.939999999999961,1.7411441200966813
5.959999999999961,1.7486025273462973
5.9799999999999605,1.7522648658862199
5.99999999999996,1.7582077317237286
6.01999999999996,1.764150764618842
6.039999999999959,1.7700939678490182
6.059999999999959,1.7760373437193084
6.079999999999958,1.7819808942997692
6.099999999999958,1.7879246215412217
6.1199999999999575,1.7938685275532438
6.139999999999957,1.7998126141989879
6.159999999999957,1.805756883575738
6.179999999999956,1.8119993173888858
6.199999999999956,1.817943956921924
6.219999999999955,1.823590804051973
6.239999999999955,1.8295358271216107
6.2599999999999545,1.83548107016061
6.279999999999954,1.8414265074901768
6.299999999999954,1.8473721102424474
6.319999999999953,1.853317941949917
6.339999999999953,1.8592638821398553
6.359999999999952,1.8652100555308502
6.379999999999952,1.871156463268604
6.3999999999999515,1.8771030769806663
6.419999999999951,1.8830498984988904
6.439999999999951,1.888996929769523
6.45999999999995,1.894944172672214
6.47999999999995,1.9008916290806603
6.499999999999949,1.9071373241177243
6.519999999999949,1.9127871863930594
6.5399999999999485,1.9187352977414753
6.559999999999948,1.9249816597522824
6.579999999999948,1.9309302114664313
6.599999999999947,1.9365809513155163
6.619999999999947,1.9428280009185412
6.639999999999946,1.9484792157304218
6.659999999999946,1.954428673579788
6.6799999999999455,1.9603783937253039
6.699999999999945,1.9663282960602508
6.719999999999945,1.9722784848557993
6.739999999999944,1.9782288569229995
6.759999999999944,1.9841795214598414
6.779999999999943,1.9904284477894911
6.799999999999943,1.9963795435572351
6.8199999999999426,2.0023309133939224
6.839999999999942,2.008282529254025
6.859999999999942,2.0142344179483818
6.879999999999941,2.0201865307767637
6.899999999999941,2.0258407714595457
6.91999999999994,2.03179338760041
6.93999999999994,2.0377462422805186
6.95999999999994,2.043699402430024
6.979999999999939,2.0496530522466525
6.999999999999939,2.0556070947199263
7.019999999999938,2.061561440813211
7.039999999999938,2.0675160215903343
7.059999999999937,2.073470673353766
7.079999999999937,2.0794255284383723
7.099999999999937,2.0853803264301134
7.119999999999936,2.0913352979552013
7.139999999999936,2.0972899867108095
7.159999999999935,2.0972899867108095
7.179999999999935,2.1094976441070847
7.1999999999999345,2.115451915295716
7.219999999999934,2.1158097823210515
7.239999999999934,2.121335739608178
7.259999999999933,2.1269576461750646
7.279999999999933,2.1329105748107136
7.299999999999932,2.132910660285567
7.319999999999932,2.144815631983862
7.3399999999999315,2.1507677549829722
7.359999999999931,2.157018372598965
7.379999999999931,2.1626712465148263
7.39999999999993,2.1626712465148263
7.41999999999993,2.1745737558726566
7.439999999999929,2.1805246483786505
7.459999999999929,2.1867739891587785
7.4799999999999285,2.192425693806868
7.499999999999928,2.1983758537126636
7.519999999999928,2.204624485265849
7.539999999999927,2.210275496560827
7.559999999999927,2.216224977815283
7.579999999999926,2.2221742085171026
7.599999999999926,2.2284218826286883
7.6199999999999255,2.234370667677295
7.639999999999925,2.2400205907624664
7.659999999999925,2.2459689320979117
7.679999999999924,2.251917049741673
7.699999999999924,2.2578649482448916
7.719999999999923,2.2638126293367176
7.739999999999923,2.2697600949964216
7.7599999999999225,2.27570734708865
7.779999999999922,2.281654387427116
7.799999999999922,2.287601217895146
7.819999999999921,2.293547840437309
7.839999999999921,2.2997928070171247
7.85999999999992,2.3057390081541302
7.87999999999992,2.3116850082517573
7.8999999999999195,2.3173322807683494
7.919999999999919,2.3232778902003606
7.939999999999919,2.3292233139761604
7.959999999999918,2.3351685358249905
7.979999999999918,2.341412059733853
7.999999999999917,2.3470584002343133
8.019999999999918,2.3533015306424643
8.039999999999917,2.359245982252966
8.059999999999917,2.365190251934072
8.079999999999917,2.365190251934072
8.099999999999916,2.376779795543693
8.119999999999916,2.382723530821021
8.139999999999915,2.388667088795319
8.159999999999915,2.3946104720218795
8.179999999999914,2.400553682389079
8.199999999999914,2.406496722082313
8.219999999999914,2.4127380019366713
8.239999999999913,2.418680696345874
8.259999999999913,2.4243248393339916
8.279999999999912,2.430565605367834
8.299999999999912,2.4306790271441927
8.319999999999911,2.4367395539533176
8.339999999999911,2.44237202377392
8.35999999999991,2.4483139262990052
8.37999999999991,2.453957315326602
8.39999999999991,2.460197265311222
8.41999999999991,2.466138705889964
8.439999999999909,2.471781642790262
8.459999999999908,2.4717816357625164
8.479999999999908,2.4839621265234983
8.499999999999908,2.4899029839261297
8.519999999999907,2.495545386166116
8.539999999999907,2.5017842840629205
8.559999999999906,2.5074264227476113
8.579999999999906,2.5133667424062804
8.599999999999905,2.519306927803979
8.619999999999905,2.5255452678416104
8.639999999999905,2.5311869097739814
8.659999999999904,2.537126726727581
8.679999999999904,2.543066410534066
8.699999999999903,2.54900597074008
8.719999999999903,2.5549454262057325
8.739999999999903,2.560884736976068
8.759999999999902,2.566823962131816
8.779999999999902,2.573061282480285
8.799999999999901,2.5787020489123367
8.8199999999999,2.5849391227015723
8.8399999999999,2.590877888076959
8.8599999999999,2.596816552708038
8.8799999999999,2.602456907183579
8.899999999999899,2.608693582711172
8.919999999999899,2.6143337488011102
8.939999999999898,2.6202720442004868
8.959999999999898,2.626210231842024
8.979999999999897,2.6321483444937135
8.999999999999897,2.6380863318440504
9.019999999999897,2.6440242704820847
9.039999999999896,2.649962086913586
9.059999999999896,2.6558998602955413
9.079999999999895,2.661837514635333
9.099999999999895,2.668073283651272
9.119999999999894,2.673712673507974
9.139999999999894,2.6799482205499703
9.159999999999894,2.685587434122673
9.179999999999893,2.691524745711609
9.199999999999893,2.697760116007299
9.219999999999892,2.7033991631034793
9.239999999999892,2.7093362821179507
9.259999999999891,2.715273339465448
9.279999999999891,2.721210364075699
9.29999999999989,2.7271474892986354
9.31999999999989,2.7330846475273693
9.33999999999989,2.739021799661951
9.35999999999989,2.744958954409456
9.379999999999889,2.750896112242083
9.399999999999888,2.756833271267973
9.419999999999888,2.762770429867333
9.439999999999888,2.7687070734606327
9.459999999999887,2.7749422685358356
9.479999999999887,2.780580765282708
9.499999999999886,2.786518433363669
9.519999999999886,2.7927542620818584
9.539999999999885,2.7983926783293067
9.559999999999885,2.8046271890334054
9.579999999999885,2.8102669178320374
9.599999999999884,2.8162033265578446
9.619999999999884,2.8221411528067155
9.639999999999883,2.8280790239324367
9.659999999999883,2.8343134212798264
9.679999999999882,2.8399524931668783
9.699999999999882,2.8461868611694587
9.719999999999882,2.852123184659021
9.739999999999881,2.8577638159579455
9.75999999999988,2.8639997363248635
9.77999999999988,2.8696380283361047
9.79999999999988,2.87557434515077
9.81999999999988,2.8815122328832095
9.839999999999879,2.887450100288208
9.859999999999879,2.893685198575
9.879999999999878,2.899324273747389
9.899999999999878,2.9055593649147733
9.919999999999877,2.9111984416169734
9.939999999999877,2.917135526213435
9.959999999999877,2.923072606637647
9.979999999999876,2.929009686372826
9.999999999999876,2.935244756003703
10.019999999999875,2.941181829984239
10.039999999999875,2.946820922161142
10.059999999999874,2.9527574548171662
10.079999999999874,2.958694571233101
10.099999999999874,2.964631170689488
10.119999999999873,2.9708667865108014
10.139999999999873,2.976505485040076
10.159999999999872,2.976505485040076
10.179999999999872,2.988379823472454
10.199999999999871,2.988787314019919
10.219999999999871,2.9965102381066044
10.23999999999987,3.000183414555809
10.25999999999987,3.0061212039583847
10.27999999999987,3.0120590738827175
10.29999999999987,3.0179969494077055
10.319999999999869,3.0239348255717706
10.339999999999868,3.0298727017906
10.359999999999868,3.0361085380295614
10.379999999999868,3.0417484534124233
10.399999999999867,3.047686336580073
10.419999999999867,3.053624219594167
10.439999999999866,3.059562106086373
10.459999999999866,3.0654996327544914
10.479999999999865,3.0717355470703382
10.499999999999865,3.0773752739731255
10.519999999999865,3.0833135450563325
10.539999999999864,3.089549393353652
10.559999999999864,3.0954873131706333
10.579999999999863,3.101127370930755
10.599999999999863,3.1070653962246757
10.619999999999862,3.1130035171460637
10.639999999999862,3.1189417596914746
10.659999999999862,3.125178041542054
10.679999999999861,3.130818526271524
10.69999999999986,3.136757060967148
10.71999999999986,3.1426956931375623
10.73999999999986,3.1486344282252317
10.75999999999986,3.154573268270459
10.779999999999859,3.160512215490767
10.799999999999859,3.1664512720402738
10.819999999999858,3.1723904400709606
10.839999999999858,3.1783297217264876
