%time,field.x,field.y,field.theta
5081000000,-4.98871518112,-0.164550013298,-1.62634197305
5101000000,-4.98768626581,-0.194594210901,-1.6202854114
5121000000,-4.98648420565,-0.224631359589,-1.61421877745
5141000000,-4.98510002505,-0.254660957329,-1.60815236131
5161000000,-4.98353376914,-0.284681945748,-1.60209604784
5181000000,-4.98178549337,-0.314693169172,-1.59603982778
5201000000,-4.9798552293,-0.344693540342,-1.58997443155
5221000000,-4.97783309211,-0.374681868357,-1.58395840144
5241000000,-4.97564070778,-0.404657245759,-1.577938818
5261000000,-4.97327671426,-0.434618597542,-1.57192728112
5281000000,-4.97073221948,-0.464564801884,-1.5659152543
5301000000,-4.96800730894,-0.49449502773,-1.55990299126
5321000000,-4.9651020725,-0.524408067464,-1.55389025309
5341000000,-4.96201660667,-0.554302811548,-1.54787725719
5361000000,-4.95875101454,-0.584178164532,-1.54186378461
5381000000,-4.95530540404,-0.614033084392,-1.53585005786
5401000000,-4.95167989238,-0.643866441474,-1.5298358534
5421000000,-4.94768320172,-0.675166525758,-1.52351911941
5441000000,-4.94388175505,-0.703463958242,-1.51780674024
5460000000,-4.94388175505,-0.703463958242,-1.51780674024
5481000000,-4.93537231886,-0.762962400797,-1.50577562475
5501000000,-4.93084025111,-0.792671281696,-1.49975973438
5521000000,-4.92613812629,-0.822352682936,-1.49374346182
5541000000,-4.92125709636,-0.852004906274,-1.48772665585
5561000000,-4.91619731928,-0.88162701552,-1.48170967436
5582000000,-4.91095896783,-0.911217942613,-1.47569221176
5604000000,-4.90554223595,-0.940776473458,-1.46967438989
5621000000,-4.89994731022,-0.970301552182,-1.463656338
5641000000,-4.89417438265,-0.999792128886,-1.45763786683
5661000000,-4.88822365231,-1.02924714539,-1.45161910511
5681000000,-4.88209532604,-1.05866553195,-1.44559986016
5701000000,-4.87578962026,-1.08804619633,-1.43958039205
5721000000,-4.86930675403,-1.11738807885,-1.43356057205
5741000000,-4.86264695159,-1.1466901284,-1.42754020233
5761000000,-4.85581045137,-1.17595124173,-1.42151968128
5781000000,-4.84879748466,-1.20517040848,-1.41549860688
5801000000,-4.841599378,-1.2343451339,-1.40947733319
5821000000,-4.83423424473,-1.26347708971,-1.40345575691
5841000000,-4.82669341384,-1.29256383945,-1.39743377297
5861000000,-4.81897713922,-1.32160439328,-1.39141151505
5881000000,-4.81108567175,-1.35059780239,-1.38538877188
5901000000,-4.80301934607,-1.37954270831,-1.37936582681
5921000000,-4.794778408,-1.40843826372,-1.37334239568
5941000000,-4.78636316624,-1.4372833261,-1.36731862079
5961000000,-4.777773919,-1.46607684385,-1.36129465184
5981000000,-4.76900211662,-1.4948159567,-1.35527020968
6001000000,-4.76006576925,-1.52350328087,-1.3492455523
6021000000,-4.75095634926,-1.55213591177,-1.34322049149
6041000000,-4.74167416429,-1.58071287315,-1.33719517145
6061000000,-4.73221951766,-1.60923322683,-1.33116936502
6081000000,-4.72259281613,-1.63769564044,-1.32514337687
6101000000,-4.71278558004,-1.6660970981,-1.31911691633
6121000000,-4.70281573605,-1.69444079347,-1.31309025271
6141000000,-4.6926748536,-1.72272356372,-1.3070631111
6161000000,-4.68236328248,-1.75094441845,-1.30103579857
6181000000,-4.67188136488,-1.77910241462,-1.29500799927
6201000000,-4.66122952743,-1.80719633473,-1.28897987083
6221000000,-4.65040814325,-1.83522518074,-1.28295157834
6241000000,-4.63941758328,-1.86318798212,-1.27692279747
6261000000,-4.62825824746,-1.89108369277,-1.2708938573
6281000000,-4.62825824433,-1.89108370282,-1.2708937744
6301000000,-4.60543483769,-1.94666980675,-1.25883492932
6321000000,-4.59377158402,-1.97435816592,-1.25280502692
6341000000,-4.58194117907,-2.00197539596,-1.2467745541
6361000000,-4.56994405332,-2.02952046611,-1.2407438455
6381000000,-4.55778064232,-2.05699235284,-1.23471299228
6401000000,-4.54545137409,-2.08439007452,-1.22868173821
6421000000,-4.5329481666,-2.11170960464,-1.22265027342
6441000000,-4.52028852347,-2.13895596851,-1.21661829441
6461000000,-4.50746437477,-2.16612515178,-1.21058618909
6481000000,-4.49447617075,-2.1932161854,-1.20455360047
6501000000,-4.48132437836,-2.2202280751,-1.19852070174
6521000000,-4.4680094931,-2.24715977352,-1.19248767618
6541000000,-4.4545235605,-2.27400701993,-1.18645427147
6561000000,-4.4545235605,-2.27400701993,-1.18645427147
6581000000,-4.42708261168,-2.32746073362,-1.17438650406
6602000000,-4.41312014814,-2.35406197541,-1.16835226683
6621000000,-4.39899700851,-2.38057821319,-1.16231745232
6641000000,-4.3847137503,-2.40700836198,-1.15628261867
6661000000,-4.37026257422,-2.43334788218,-1.15024731677
6681000000,-4.35566058506,-2.45960304775,-1.14421187898
6701000000,-4.34090002726,-2.48576926176,-1.13817606343
6721000000,-4.32598140956,-2.51184561333,-1.13214005273
6741000000,-4.31090526451,-2.53783115613,-1.12610355998
6761000000,-4.29567217545,-2.56372485451,-1.12006697059
6783000000,-4.28027451019,-2.58952189,-1.11402991631
6801000000,-4.26472915471,-2.61522912039,-1.10799274043
6821000000,-4.24902852178,-2.64084167652,-1.10195509482
6841000000,-4.23317314295,-2.66635868614,-1.09591736457
6861000000,-4.21716359137,-2.69177921032,-1.08987915449
6881000000,-4.20100048591,-2.71710223904,-1.08384086404
6901000000,-4.18467637805,-2.74232266958,-1.0778021114
6921000000,-4.16820788961,-2.7674479834,-1.07176325292
6941000000,-4.15157964707,-2.79246873904,-1.06572394481
6961000000,-4.13480815913,-2.81739265611,-1.05968453757
6981000000,-4.11788607489,-2.84221451399,-1.05364466494
7001000000,-4.10081401545,-2.86693338239,-1.04760472979
7021000000,-4.08359258206,-2.8915483819,-1.04156431851
7041000000,-4.06622242992,-2.91605855467,-1.03552384902
7061000000,-4.04870416884,-2.94046303412,-1.02948290389
7081000000,-4.03103844489,-2.96476090531,-1.02344190612
7101000000,-4.01322589946,-2.98895127458,-1.01740043395
7121000000,-3.99526716867,-3.0130332692,-1.01135891461
7141000000,-3.97716290931,-3.03700599552,-1.00531692182
7161000000,-3.95891378026,-3.06086856947,-0.999274887731
7181000000,-3.94051280983,-3.08461524079,-0.993232399487
7201000000,-3.92197593757,-3.10825486895,-0.987189843359
7221000000,-3.90328863766,-3.13177674553,-0.981146846437
7241000000,-3.88445916993,-3.1551849474,-0.975103806776
7260000000,-3.88445916927,-3.15518494837,-0.975103585971
7281000000,-3.84639149166,-3.2016670422,-0.963016514255
7299000000,-3.84639149166,-3.2016670422,-0.963016514255
7321000000,-3.80775678328,-3.24767980244,-0.950928872761
7341000000,-3.78823334875,-3.27051131157,-0.944884330633
7361000000,-3.76857294286,-3.29322463931,-0.938839601926
7381000000,-3.74877517449,-3.31581848561,-0.93279486192
7401000000,-3.72884084197,-3.33829191469,-0.926749656976
7421000000,-3.70877067283,-3.36064409662,-0.920704448436
7441000000,-3.68856539758,-3.3828742087,-0.914658776494
7461000000,-3.66822575176,-3.40498143263,-0.90861287266
7481000000,-3.64775247812,-3.42696495181,-0.902566975087
7501000000,-3.62714632226,-3.44882395689,-0.896520733705
7521000000,-3.60640803546,-3.47055764211,-0.890474386108
7541000000,-3.58553837399,-3.49216520626,-0.884427579097
7561000000,-3.56453809902,-3.51364585272,-0.878380789023
7581000000,-3.54340098272,-3.53499302719,-0.872333559664
7601000000,-3.52214178712,-3.55621745364,-0.866286319942
7621000000,-3.5007543058,-3.57731259033,-0.860238637006
7641000000,-3.47923928644,-3.59827769193,-0.85419098424
7661000000,-3.45759751453,-3.61911198303,-0.848142877425
7681000000,-3.43582981567,-3.63981465454,-0.842094805836
7701000000,-3.41393696714,-3.66038496282,-0.836046281626
7721000000,-3.3919197685,-3.68082214899,-0.82999779843
7741000000,-3.36977231569,-3.70111936399,-0.823948883281
7761000000,-3.34750883766,-3.72128803528,-0.81789998137
7781000000,-3.32512345194,-3.74132132814,-0.811850643538
7801000000,-3.30261034476,-3.76121231785,-0.805801379018
7821000000,-3.27998353572,-3.78097268761,-0.799751634034
7841000000,-3.25723728773,-3.80059547554,-0.793701960487
7861000000,-3.23437232345,-3.82008006144,-0.787651841804
7880000000,-3.23437232345,-3.82008006144,-0.787651841804
7901000000,-3.18829014719,-3.85863119668,-0.775551191547
7921000000,-3.16507443688,-3.87769650635,-0.769500771149
7941000000,-3.14174347407,-3.89662067221,-0.76344956734
7961000000,-3.11829811065,-3.91540299713,-0.757398783277
7981000000,-3.09473920535,-3.93404278678,-0.751346906636
8001000000,-3.07106762033,-3.95253935288,-0.745295767205
8021000000,-3.04728422198,-3.97089201236,-0.739243208356
8041000000,-3.02338988089,-3.98910008744,-0.733191721842
8061000000,-2.9993854718,-4.00716290566,-0.727138503764
8081000000,-2.97527187365,-4.02507979989,-0.721086678568
8101000000,-2.95104396054,-4.04284331679,-0.715032836138
8121000000,-2.92671464158,-4.06046636964,-0.708980667163
8141000000,-2.90227881176,-4.0779415224,-0.702926028628
8161000000,-2.90227881176,-4.0779415224,-0.702926028628
8181000000,-2.85309108092,-4.11244563549,-0.690818352479
8201000000,-2.82834103229,-4.12947327711,-0.684765561376
8221000000,-2.80348806076,-4.14635047539,-0.678709739886
8241000000,-2.77853307527,-4.16307660816,-0.672656643862
8261000000,-2.75347699136,-4.17965105665,-0.666600195577
8282000000,-2.75347699136,-4.17965105665,-0.666600195577
8301000000,-2.70306520569,-4.21234245663,-0.654489719008
8321000000,-2.67770580754,-4.22845102239,-0.64843605557
8341000000,-2.65224906222,-4.2444054354,-0.642378355588
8361000000,-2.65224906222,-4.2444054354,-0.642378355588
8381000000,-2.60105810179,-4.27586403658,-0.630265869811
8401000000,-2.57532025337,-4.29135986164,-0.624211639457
8421000000,-2.5494887353,-4.30669927718,-0.618152839552
8441000000,-2.52356453887,-4.32188168471,-0.612098348188
8461000000,-2.49754859341,-4.33690653859,-0.606039002676
8481000000,-2.47144185343,-4.35177328346,-0.599981798488
8501000000,-2.44524527681,-4.36648136979,-0.593924409682
8521000000,-2.41895472436,-4.38102275278,-0.587866857135
8541000000,-2.39258136653,-4.39541188335,-0.581811736841
8561000000,-2.36612106207,-4.40964075279,-0.575756510704
8581000000,-2.33956982059,-4.42370123447,-0.569692991399
8601000000,-2.33956982158,-4.42370123384,-0.56969018297
8621000000,-2.28622327424,-4.45135288919,-0.557576192028
8641000000,-2.25942494142,-4.46493547346,-0.551520524377
8661000000,-2.23254452946,-4.47835523059,-0.545458934563
8681000000,-2.20558307317,-4.49161163506,-0.539403059041
8701000000,-2.17854153874,-4.50470421137,-0.533341075368
8721000000,-2.15142091916,-4.51763247554,-0.527278832408
8741000000,-2.12422221039,-4.53039594967,-0.521222661188
8761000000,-2.09694186874,-4.54298630918,-0.515163272946
8781000000,-2.06958998639,-4.55541878024,-0.509106902629
8801000000,-2.04216304055,-4.56768506161,-0.503043939779
8821000000,-2.01466199289,-4.57978471835,-0.496987405371
8841000000,-1.98708785413,-4.59171730098,-0.490924299141
8861000000,-1.9594416866,-4.60348234164,-0.484867597567
8881000000,-1.93172448246,-4.61507941814,-0.478804204165
8902000000,-1.90393725898,-4.62650810241,-0.472740636196
8921000000,-1.87608103605,-4.63776797255,-0.466683700224
8941000000,-1.84815683928,-4.64885861138,-0.460623304965
8961000000,-1.82016569262,-4.65977961005,-0.454566224153
8982000000,-1.79210862569,-4.67053056445,-0.448509074361
9001000000,-1.76398667161,-4.68111107629,-0.442441594635
9020000000,-1.76398667267,-4.68111107579,-0.442438143465
9041000000,-1.73580086174,-4.69152075562,-0.436377399327
9061000000,-1.70755223191,-4.7017592178,-0.430316582277
9081000000,-1.65087066314,-4.72172098573,-0.41820171939
9101000000,-1.6224398117,-4.73144355207,-0.412137230441
9121000000,-1.59395030456,-4.74099342718,-0.406079662258
9141000000,-1.56540319318,-4.75037025645,-0.400015046171
9161000000,-1.53679952581,-4.75957369399,-0.393950370567
9181000000,-1.50813684045,-4.768595035,-0.387892673933
9201000000,-1.47942321903,-4.77745066377,-0.381831382491
9221000000,-1.45065619518,-4.78613191216,-0.375773582199
9241000000,-1.42183683512,-4.79463844898,-0.369708601049
9261000000,-1.39296619124,-4.80296996141,-0.363650727701
9281000000,-1.36404531443,-4.81112614538,-0.357585842003
9301000000,-1.335075297,-4.8191066888,-0.351527902518
9321000000,-1.33507530139,-4.81910668719,-0.351520951727
9341000000,-1.27698891836,-4.83453117536,-0.339404989426
9361000000,-1.24787787004,-4.8419830571,-0.333339891075
9381000000,-1.21872186324,-4.84925819211,-0.327275007158
9401000000,-1.18952208083,-4.85635627226,-0.321216942675
9421000000,-1.16027956277,-4.86327704705,-0.315155457224
9441000000,-1.1309925383,-4.87001164643,-0.309097375043
9461000000,-1.10166777894,-4.87657703867,-0.303032481999
9481000000,-1.07230077889,-4.88295573843,-0.296967560552
9501000000,-1.04289807484,-4.88916479622,-0.290909416529
9521000000,-1.01345802435,-4.89519534859,-0.28484784245
9541000000,-0.983981699378,-4.9010471686,-0.278789700612
9561000000,-0.954470157586,-4.90672004626,-0.272725047035
9581000000,-0.924924564149,-4.91221374982,-0.266660603404
9601000000,-0.895345948465,-4.9175280929,-0.260602464257
9621000000,-0.865733050171,-4.92265411662,-0.254541263596
9641000000,-0.836091682736,-4.92760913865,-0.24848312519
9662000000,-0.806420616035,-4.93238422837,-0.242418701961
9681000000,-0.776720808116,-4.93697923535,-0.236354598176
9701000000,-0.74699346927,-4.94139395988,-0.230293614226
9721000000,-0.717237565779,-4.94561942044,-0.22423555771
9741000000,-0.687458444152,-4.94967308904,-0.218171549077
9761000000,-0.657654983367,-4.95354603861,-0.212113515559
9781000000,-0.627828292496,-4.95723811556,-0.206049893151
9801000000,-0.59797955615,-4.96074916432,-0.199991912528
9821000000,-0.568109828517,-4.96407906509,-0.193931267432
9841000000,-0.538220206764,-4.96722769598,-0.18787334664
9861000000,-0.50831181184,-4.97019493762,-0.181810202048
9881000000,-0.478384062245,-4.97297176758,-0.175747256421
9901000000,-0.448439746981,-4.97556698439,-0.169689445521
9921000000,-0.418481610874,-4.97798942446,-0.163628912284
9941000000,-0.388509015429,-4.98023010845,-0.157571178322
9961000000,-0.358523108384,-4.98228893712,-0.151508344688
9981000000,-0.328523615315,-4.98415686814,-0.145446085311
10001000000,-0.328523615315,-4.98415686814,-0.145446085311
10021000000,-0.268495361177,-4.98736455453,-0.133328463263
10041000000,-0.238467298362,-4.98869526118,-0.127268740859
10061000000,-0.208431483034,-4.98984379755,-0.121211314378
10081000000,-0.178388978369,-4.99081012734,-0.115149751213
10102000000,-0.148340916427,-4.99159421284,-0.109092444845
10121000000,-0.118288441349,-4.99219602261,-0.103031224522
10141000000,-0.0882326053643,-4.99261554183,-0.0969702873731
10161000000,-0.0581744536539,-4.99285276179,-0.0909131782514
10181000000,-0.0281143197195,-4.99289863871,-0.0848543579971
10201000000,0.00194579407756,-4.99276218388,-0.0787956279377
10221000000,0.0320040895392,-4.99245245562,-0.0727387225715
10241000000,0.0620601707812,-4.99196044292,-0.0666781004384
10261000000,0.0921136849211,-4.9912771174,-0.060618180869
10281000000,0.122162774192,-4.9904115278,-0.054561530826
10301000000,0.152205776559,-4.98937276851,-0.0485032549996
10321000000,0.182242256109,-4.98815185061,-0.0424451636744
10341000000,0.21227106094,-4.98674880768,-0.0363887692085
10362000000,0.242291088872,-4.98516369125,-0.0303324661678
10381000000,0.272301218578,-4.98339656063,-0.024272203868
10401000000,0.302300384642,-4.98144739317,-0.0182160937595
10421000000,0.332287310741,-4.97940887558,-0.0121976671117
10441000000,0.362261250932,-4.97719766474,-0.00618640541158
10461000000,0.392221171934,-4.97480583725,-0.000174841286586
10481000000,0.42216582274,-4.97224254068,0.00583715685309
10501000000,0.452094304539,-4.96949883507,0.0118494601624
10521000000,0.48200538319,-4.96656579096,0.0178622285677
10543000000,0.511898123524,-4.96346155348,0.0238753841451
10561000000,0.511898123524,-4.96346155348,0.0238753841451
10581000000,0.571624167397,-4.9567038129,0.0359025974197
10601000000,0.601454936382,-4.95305054407,0.0419167242058
10623000000,0.631263235646,-4.94922652914,0.04793134417
10641000000,0.661047751856,-4.94522287312,0.0539462025413
10661000000,0.690807359801,-4.94103971556,0.0599615401839
10681000000,0.720540994598,-4.93667719856,0.0659771199933
10703000000,0.750247598309,-4.93213546958,0.0719931819838
10721000000,0.779925368231,-4.92740568626,0.0780095944939
10741000000,0.809574563204,-4.92250601731,0.0840262632363
10762000000,0.809574510291,-4.92250602183,0.0840263258762
10781000000,0.868780969422,-4.91217068338,0.0960607861046
10801000000,0.898335197185,-4.90672638637,0.102078507084
10821000000,0.927855887815,-4.90110391438,0.108096721788
10841000000,0.957342798511,-4.89531245145,0.114115307723
10861000000,0.986794043416,-4.88934320519,0.120134109003
10882000000,1.01620750147,-4.88318741468,0.126153315727
10901000000,1.04558416544,-4.87686323918,0.132172830131
10921000000,1.07492197297,-4.87036192048,0.138192823102
10941000000,1.10421867444,-4.86367473145,0.144213155317
10961000000,1.10421867444,-4.86367473145,0.144213155317
10981000000,1.16269017698,-4.8497884918,0.156254770046
11001000000,1.19186170782,-4.84258096721,0.162276025263
11021000000,1.22098906511,-4.8351974992,0.16829769767
11041000000,1.25007108619,-4.82763836468,0.17431964575
11061000000,1.27910678446,-4.81990381743,0.180342081676
11081000000,1.30809505344,-4.81199413886,0.186364719201
11101000000,1.30809505847,-4.8119941379,0.18636486417
11123000000,1.3384803774,-4.80350428167,0.192690720139
11141000000,1.39476429381,-4.78720795853,0.204434989725
11161000000,1.4235523811,-4.77860058977,0.210458993962
11181000000,1.45228664298,-4.76981979827,0.216483477077
11200000000,1.45228665783,-4.76981979499,0.216483552751
11221000000,1.50959527234,-4.75173794149,0.228533329175
11241000000,1.53816638305,-4.74243776821,0.234558760523
11261000000,1.56668061726,-4.73296520729,0.240584449701
11281000000,1.59513697876,-4.72332058437,0.24661062809
11301000000,1.62353436656,-4.713504258,0.252636983488
11321000000,1.65187180411,-4.70351656207,0.258663828283
11341000000,1.6801482349,-4.69335785755,0.264691005666
11361000000,1.70836257541,-4.68302852037,0.270718351836
11381000000,1.73651384791,-4.67252890448,0.276746107084
11401000000,1.76459855396,-4.66185068773,0.282774094098
11421000000,1.79262058247,-4.65101165062,0.288802595007
11441000000,1.82057642769,-4.64000348828,0.294831248082
11461000000,1.82057646056,-4.64000347826,0.29483141385
11481000000,1.87628441576,-4.61747338358,0.306889586494
11501000000,1.90403529983,-4.60595909764,0.312919480106
11521000000,1.93171515887,-4.59427877625,0.318949489459
11541000000,1.95932489817,-4.58243098354,0.324979743232
11561000000,1.98686237884,-4.57041651258,0.331010486108
11581000000,2.01432658294,-4.55823579757,0.337041372147
11601000000,2.01432659397,-4.55823579369,0.337041546701
11621000000,2.06902962957,-4.5333694931,0.349104170978
11641000000,2.09626760004,-4.52069158854,0.355136273081
11661000000,2.12342868392,-4.50785031749,0.361168407878
11681000000,2.15051037515,-4.49484547693,0.36720101948
11701000000,2.17751392688,-4.48167667746,0.373233952297
11722000000,2.17751392688,-4.48167667746,0.373233952297
11741000000,2.20981515069,-4.46566637295,0.380474749224
11761000000,2.23529698434,-4.45281094438,0.386206852687
11779000000,2.27006393621,-4.43501894081,0.394052896683
11801000000,2.29670539143,-4.42113462379,0.400085332459
11821000000,2.32325956067,-4.40708300799,0.406119953348
11841000000,2.34972815478,-4.39287102471,0.412154659397
11861000000,2.3761101746,-4.3784991852,0.418189851384
11881000000,2.40240465866,-4.36396800494,0.424225149959
11901000000,2.42860692376,-4.34926974669,0.430260935204
11921000000,2.45471967743,-4.33441323129,0.436296820445
11941000000,2.48074196486,-4.31939898632,0.442333191496
11961000000,2.50667667862,-4.3042357575,0.448369655765
11981000000,2.53251516915,-4.28890767903,0.454406607109
12001000000,2.55826427125,-4.27343168605,0.460443645991
12021000000,2.58391914885,-4.25780013961,0.466481070318
12041000000,2.60947885323,-4.2420136154,0.472518877862
12061000000,2.63494245299,-4.22607268094,0.478556768111
12081000000,2.66030900859,-4.20997791521,0.484595140109
12101000000,2.68557759226,-4.19372989862,0.490633589314
