%time,field.x,field.y,field.theta
2781000000,2.02638426459,-0.146337069757,-0.123106687321
2801000000,2.03814619338,-0.14814229579,-0.124010233416
2821000000,2.04990607409,-0.149958139365,-0.124903563311
2841000000,2.06166430161,-0.151784648583,-0.125806747438
2861000000,2.07342109997,-0.153622403596,-0.126710280498
2881000000,2.08517613042,-0.15547025083,-0.127613611744
2901000000,2.09692950443,-0.157329322184,-0.128516962198
2921000000,2.10868123394,-0.159198498387,-0.129420442831
2941000000,2.12043115735,-0.16107887922,-0.130323946821
2961000000,2.13217928833,-0.162969346937,-0.131212977437
2981000000,2.14392578568,-0.164870487142,-0.132116447344
3001000000,2.15567007051,-0.166782216866,-0.133008695001
3021000000,2.16741290679,-0.168704636823,-0.133911977493
3041000000,2.17915408734,-0.170637719411,-0.13481542493
3061000000,2.19089326847,-0.172581969839,-0.135718702443
3081000000,2.20263086147,-0.174536333223,-0.136622125546
3101000000,2.21436648623,-0.176501872729,-0.137525213057
3121000000,2.22610044837,-0.178477515467,-0.13842862027
3141000000,2.23783275154,-0.180463824567,-0.139331681679
3161000000,2.24956303935,-0.182460745622,-0.140235082059
3181000000,2.2612914837,-0.184468301419,-0.141138129837
3201000000,2.27301779043,-0.186486449431,-0.142041170237
3221000000,2.28474250222,-0.18851526646,-0.142944548216
3241000000,2.28474237757,-0.188515248547,-0.1429443757
3261000000,2.3081860482,-0.192604750056,-0.144750936682
3281000000,2.31990509786,-0.194665447014,-0.145654292284
3301000000,2.33162198185,-0.196737281312,-0.146557305587
3321000000,2.34333721347,-0.198819217557,-0.147460638452
3341000000,2.34408300705,-0.198924744174,-0.147459044271
3361000000,2.34458275881,-0.199003165052,-0.147609112385
3381000000,2.33465603511,-0.198641998066,-0.150109209777
3401000000,2.32344924792,-0.19817344854,-0.15280570015
3421000000,2.31265529601,-0.197737184491,-0.154662860127
3441000000,2.30134083378,-0.19719119902,-0.157359384956
3461000000,2.29013714403,-0.196631926472,-0.160055790689
3481000000,2.29005157092,-0.196618069433,-0.160055845284
3501000000,2.26764939068,-0.195408105255,-0.165448696529
3521000000,2.25631634982,-0.194734749782,-0.16814525741
3541000000,2.24503211517,-0.194038490774,-0.170841843023
3561000000,2.23383791581,-0.193326897855,-0.173538360093
3581000000,2.22261334228,-0.192579206116,-0.176234936818
3601000000,2.21139314852,-0.191801443929,-0.178931527458
3621000000,2.20020544528,-0.190998795721,-0.181628091334
3639000000,2.20014758784,-0.190988141225,-0.181628172701
3661000000,2.17777956654,-0.189290211346,-0.1870213499
3681000000,2.16654348371,-0.188385871443,-0.189718033437
3701000000,2.15531179323,-0.187451314811,-0.192414733337
3721000000,2.14413660983,-0.186496870481,-0.195111368875
3741000000,2.13293796137,-0.185506912667,-0.197808055985
3761000000,2.12176833541,-0.184491904388,-0.200504717263
3781000000,2.11055031544,-0.183436068451,-0.203201465829
3801000000,2.09938659271,-0.182360462408,-0.205898141249
3821000000,2.08817712611,-0.181244283484,-0.208594912776
3842000000,2.07697787897,-0.180099141369,-0.211291695949
3861000000,2.06582395756,-0.178931187125,-0.213988407296
3881000000,2.05464079958,-0.177727406853,-0.216685209468
3901000000,2.04349328786,-0.176500470693,-0.219381939336
3918000000,2.04349328786,-0.176500470693,-0.219381939336
3941000000,2.02118747002,-0.173949735069,-0.224775514165
3961000000,2.01004307045,-0.172630496439,-0.22747231514
3981000000,1.99890996315,-0.171282847629,-0.230169083211
4001000000,1.98776979407,-0.169902482139,-0.232865941767
4021000000,1.97664437096,-0.168494542877,-0.235562725167
4041000000,1.96551596928,-0.167054799365,-0.238259597097
4061000000,1.95439855151,-0.165586620685,-0.240956393596
4081000000,1.94328083309,-0.164087245808,-0.243653277048
4101000000,1.93216927099,-0.162556693735,-0.246350162326
4121000000,1.92106483398,-0.160996779372,-0.24904697402
4141000000,1.90996344608,-0.159408027445,-0.251743834126
4161000000,1.89886745335,-0.157789465399,-0.254440655056
4181000000,1.8877745974,-0.156140499091,-0.257137559396
4201000000,1.87668774039,-0.154461869522,-0.25983438588
4221000000,1.86560496766,-0.152751499723,-0.262531297401
4241000000,1.85452756933,-0.151012852948,-0.265228126032
4261000000,1.84345478617,-0.149242585442,-0.267925037857
4282000000,1.84345478617,-0.149242585442,-0.267925037857
4301000000,1.82132415768,-0.145615285567,-0.273318783784
4321000000,1.81026705439,-0.143755304755,-0.276015614662
4341000000,1.79921446555,-0.141866775794,-0.278712528825
4361000000,1.79921446555,-0.141866775794,-0.278712528825
4381000000,1.77712593319,-0.137998620553,-0.284106273807
4401000000,1.76608947056,-0.136020400753,-0.286803179528
4421000000,1.75505863985,-0.134012342172,-0.28950000581
4441000000,1.74403376531,-0.131972954628,-0.292196866258
4461000000,1.73301458404,-0.129903734085,-0.294893731335
4481000000,1.72200072696,-0.127806130235,-0.297590545816
4501000000,1.71099266867,-0.125678702377,-0.300287436601
4521000000,1.69999045777,-0.123521456091,-0.302984322019
4541000000,1.6889947487,-0.121333001885,-0.305681122552
4561000000,1.67800464016,-0.119116220575,-0.308377960342
4581000000,1.66702068313,-0.116869687113,-0.311074751955
4601000000,1.66702068715,-0.11686968841,-0.311074829374
4621000000,1.64507193676,-0.11228597773,-0.316468477341
4641000000,1.63410688422,-0.109950281303,-0.319165241575
4661000000,1.6231482994,-0.10758490235,-0.321862041836
4681000000,1.6231482994,-0.10758490235,-0.321862041836
4701000000,1.601250797,-0.10276514359,-0.32725557897
4721000000,1.5903120458,-0.100310801099,-0.329952391031
4741000000,1.57938009962,-0.0978268514606,-0.332649117278
4761000000,1.56845548175,-0.0953118661165,-0.335345907143
4781000000,1.55753736294,-0.092768751876,-0.338042689981
4801000000,1.54662624024,-0.0901960676187,-0.340739384671
4821000000,1.53572219706,-0.0875938350572,-0.343436105138
4841000000,1.52482535557,-0.0849620886371,-0.346132775923
4861000000,1.51393574016,-0.082300827868,-0.348829509114
4881000000,1.50305347503,-0.0796100884661,-0.351526228959
4901000000,1.49217865244,-0.0768898951041,-0.354222860839
4921000000,1.48131132518,-0.0741402581104,-0.356919515983
4937000000,1.48131132518,-0.0741402581104,-0.356919515983
4961000000,1.4595994769,-0.0685527355257,-0.362312782431
4981000000,1.44875564333,-0.0657134763357,-0.365009431823
5001000000,1.43791964615,-0.0628448634188,-0.367705986391
5021000000,1.42709103186,-0.0599483363996,-0.370402566249
5041000000,1.41627038189,-0.0570224866626,-0.373099128222
5061000000,1.41627038189,-0.0570224866626,-0.373099128222
5081000000,1.39465323649,-0.0510828883657,-0.378492199001
5102000000,1.38385696694,-0.0480692105236,-0.381188671142
5121000000,1.37306895404,-0.0450262895625,-0.383885197266
5141000000,1.36228932064,-0.0419541655952,-0.386581704001
5161000000,1.35151815806,-0.0388528665797,-0.389278119289
5181000000,1.34021684343,-0.0355647412124,-0.392108083161
5201000000,1.33000187227,-0.0325615537712,-0.394671007333
5221000000,1.319256291,-0.0293709738743,-0.397367352994
5241000000,1.30852065324,-0.026153568514,-0.400063719699
5261000000,1.29779290859,-0.0229066957106,-0.402760031217
5281000000,1.28707408681,-0.0196307808793,-0.40545639145
5301000000,1.27636422633,-0.0163258310867,-0.408152728307
5321000000,1.26566347353,-0.0129919001508,-0.410848971679
5341000000,1.25497186302,-0.00962899390347,-0.413545226549
5361000000,1.24429009759,-0.00623576343993,-0.41624146213
5381000000,1.24429009759,-0.00623576343993,-0.41624146213
5401000000,1.22295336665,0.000634668460952,-0.421633845625
5421000000,1.21229913893,0.00411321099745,-0.424330035463
5441000000,1.20165447849,0.00762058663848,-0.427026130449
5461000000,1.20165446717,0.00762059179771,-0.427026164807
5481000000,1.18039408772,0.0147217705377,-0.432418275521
5501000000,1.16977851058,0.0183155273265,-0.43511435874
5521000000,1.15917280092,0.0219380166566,-0.437810345876
5541000000,1.14857699921,0.0255892290582,-0.440506372821
5561000000,1.13799121663,0.0292691216842,-0.443202370747
5583000000,1.12741553363,0.0329776657066,-0.445898272142
5601000000,1.11685001195,0.0367148410172,-0.448594177581
5621000000,1.10629473297,0.0404806179313,-0.451290019523
5641000000,1.09574974823,0.0442749810364,-0.453985897849
5661000000,1.08521516833,0.0480978859649,-0.456681744783
5681000000,1.07469107328,0.0519493027816,-0.459377494126
5701000000,1.06417752455,0.0558292105238,-0.46207324465
5721000000,1.05367460309,0.0597375783876,-0.464768929983
5741000000,1.04318236023,0.0636743902427,-0.467464648201
5761000000,1.03270090592,0.0676396002112,-0.470160332782
5781000000,1.02223031978,0.0716331772579,-0.472855918693
5801000000,1.01177066295,0.0756550995694,-0.475551502904
5821000000,1.00132201595,0.0797053352301,-0.478247020266
5842000000,0.990885123659,0.0837852087274,-0.480942568425
5861000000,0.980458716627,0.0878919848041,-0.483638078491
5881000000,0.970043550198,0.0920269831221,-0.486333489516
5901000000,0.959639685091,0.0961901805148,-0.489028895985
5921000000,0.949247207222,0.100381540924,-0.491724265587
5941000000,0.938866205452,0.104601026308,-0.494419566396
5961000000,0.928496730516,0.108848618893,-0.497114892326
5981000000,0.918138862259,0.113124285087,-0.499810179596
6001000000,0.907793429636,0.117429302325,-0.502505367402
6021000000,0.897459037435,0.121761000128,-0.505200544877
6041000000,0.88713649067,0.126120669832,-0.507895652765
6061000000,0.876826581757,0.13050960772,-0.510590783308
6081000000,0.866527931412,0.134925133295,-0.513285871618
6101000000,0.856241362067,0.139368527896,-0.515980858429
6121000000,0.845966912754,0.143839778173,-0.518675864377
6141000000,0.835704701667,0.148338826389,-0.521370798231
6161000000,0.825454785066,0.152865649769,-0.524065659977
6181000000,0.815217224915,0.157420222222,-0.526760508942
6201000000,0.8049921174,0.162002497533,-0.529455285044
6221000000,0.794779512566,0.166612456112,-0.532150076902
6241000000,0.78457949125,0.171250060437,-0.534844823652
6261000000,0.774392157007,0.175915258938,-0.537539467058
6283000000,0.76421755139,0.180608035713,-0.540234094748
6301000000,0.754055770176,0.185328344173,-0.542928647603
6321000000,0.743906827769,0.190076185679,-0.545623208314
6341000000,0.733770813168,0.194851514256,-0.548317717168
6361000000,0.723648702939,0.199655512972,-0.551012134748
6382000000,0.713538877858,0.204485641873,-0.553706525532
6401000000,0.703442274438,0.209343109269,-0.556400845927
6421000000,0.702314804165,0.209900374727,-0.556621966326
6441000000,0.701913301921,0.210145187132,-0.557469240219
6461000000,0.704090039834,0.209417464415,-0.556244804835
6481000000,0.706516904208,0.208596067666,-0.554956025345
6501000000,0.708970732867,0.207761766622,-0.553639119308
6521000000,0.711431546875,0.206927368418,-0.55257806317
6541000000,0.713887698626,0.20609966343,-0.551261129091
6561000000,0.716533712851,0.205192498985,-0.549879954689
6581000000,0.718930930958,0.204376531773,-0.548626595992
6601000000,0.721390645356,0.203558924235,-0.547309587849
6621000000,0.723880948398,0.202726732488,-0.545992407922
6641000000,0.726342954511,0.201915760145,-0.544675359423
6661000000,0.728862669471,0.201074174467,-0.543357985244
6681000000,0.731380160144,0.200237919442,-0.542040590502
6701000000,0.733969203147,0.199395566244,-0.540659538743
6722000000,0.736461341938,0.198583105003,-0.539342248009
6741000000,0.738830032747,0.197815706893,-0.538088869374
6761000000,0.741298895754,0.197024857067,-0.536771672934
6781000000,0.743934199571,0.196171901302,-0.53539021545
6801000000,0.746281570692,0.195428637998,-0.534136931866
6821000000,0.74878138731,0.194631537957,-0.532819377882
6841000000,0.751273222379,0.193843160609,-0.531501801488
6861000000,0.751273222379,0.193843160609,-0.531501801488
6881000000,0.756229328244,0.192294729964,-0.528867052539
6901000000,0.758705873271,0.191527282346,-0.527549715601
6921000000,0.761192494373,0.190757918063,-0.526232059097
6941000000,0.763671173934,0.189997126808,-0.524914686359
6961000000,0.766156495273,0.189236452868,-0.523596988584
6981000000,0.768640787066,0.188480333498,-0.522279269851
7001000000,0.771122734776,0.187729706416,-0.520961835858
7021000000,0.773606875746,0.1869815673,-0.519644228852
7041000000,0.776090835289,0.18623747044,-0.518326754324
7061000000,0.77857757139,0.1854957288,-0.517008953769
7081000000,0.781063610891,0.184758316157,-0.515691438983
7101000000,0.783551786535,0.184023623937,-0.514373597992
7122000000,0.786040584187,0.183292508526,-0.513055736711
7141000000,0.788529710176,0.182565131388,-0.511738162216
7161000000,0.788529956951,0.182564992998,-0.511738008736
7181000000,0.793511263646,0.181120282007,-0.509102800717
7201000000,0.796003787144,0.180402755062,-0.507784860252
7221000000,0.798496965444,0.179688775174,-0.506467207528
7241000000,0.800991372597,0.178978022445,-0.505149228001
7261000000,0.803486696316,0.178270668835,-0.503831228927
7281000000,0.806107983276,0.177530138188,-0.502449546251
7301000000,0.808479093704,0.176866864266,-0.501195489199
7321000000,0.810977247043,0.176169677729,-0.499877735966
7341000000,0.813477501579,0.175475216419,-0.498559811821
7361000000,0.815977624102,0.174784719396,-0.497241871853
7381000000,0.818478693962,0.174097596806,-0.495924067694
7401000000,0.82098076952,0.173413815993,-0.494605936177
7421000000,0.823483872373,0.172733558118,-0.493287786007
7441000000,0.8259878281,0.172056528144,-0.49196992684
7461000000,0.828492743787,0.171382861377,-0.490651894696
7484000000,0.83099860124,0.170712566292,-0.489333999365
7501000000,0.833505418609,0.170045632127,-0.488015776397
7521000000,0.836013167796,0.169382072701,-0.486697535218
7541000000,0.838521844325,0.168721889226,-0.485379586474
7561000000,0.841031460554,0.168065074071,-0.484061464901
7581000000,0.843542072537,0.167411789445,-0.482743325827
7601000000,0.846053527909,0.166761728601,-0.481425324658
7621000000,0.848565900704,0.166115044544,-0.480106995378
7641000000,0.851079194318,0.165471734285,-0.47878864859
7661000000,0.853593388441,0.164831807252,-0.477470595934
7681000000,0.856108564942,0.1641954121,-0.476152370612
7702000000,0.858624640667,0.163562398455,-0.474834284181
7721000000,0.861141533607,0.162932615799,-0.473515869
7741000000,0.863659330396,0.16230621036,-0.47219743664
7761000000,0.866177999717,0.161683196883,-0.470879300031
7781000000,0.868697520294,0.161063584972,-0.469560835078
7801000000,0.871217948177,0.160447345075,-0.468242665816
7821000000,0.873739223958,0.15983450615,-0.466924324302
7841000000,0.876261392522,0.159225044462,-0.465606122785
7861000000,0.878784374214,0.15861899886,-0.464287592861
7881000000,0.881308217067,0.158016344061,-0.46296904673
7901000000,0.883832962966,0.157417058173,-0.461650797633
7921000000,0.886358559089,0.156821166483,-0.4603325329
7942000000,0.888884952025,0.156228694221,-0.459013939572
7961000000,0.891412198843,0.155639611915,-0.457695330396
7981000000,0.893940319006,0.155053908899,-0.456377020037
8001000000,0.896469231494,0.154471623907,-0.4550585376
8021000000,0.898998867669,0.153892789185,-0.453739882966
8041000000,0.901529546254,0.153317439632,-0.452421524449
8061000000,0.904060885145,0.152745378688,-0.451102836257
8081000000,0.906593123145,0.152176681084,-0.449784447404
8101000000,0.909126201296,0.151611374702,-0.448465882403
8121000000,0.911660104703,0.15104941842,-0.447147396595
8141000000,0.914194828522,0.150491096722,-0.445828951245
8161000000,0.916730940233,0.149935714691,-0.444510171965
8181000000,0.919267185001,0.149384053598,-0.443191697324
8201000000,0.921805338828,0.148835269766,-0.441872897819
8221000000,0.924343221122,0.148290583864,-0.440554400865
8241000000,0.926882017934,0.147749053925,-0.439235580469
8260000000,0.926881898696,0.147749109857,-0.439235422656
8281000000,0.931961340951,0.14667650681,-0.436598215828
8301000000,0.934502047277,0.146145401645,-0.435279514344
8321000000,0.937043701663,0.145617623982,-0.433960958179
8341000000,0.939585651608,0.145093474567,-0.432642072716
8361000000,0.939585443571,0.145093570483,-0.432641914477
8381000000,0.944672311205,0.144055189989,-0.430004579468
8401000000,0.947216797012,0.143541156503,-0.428685813552
8421000000,0.949762182573,0.143030468957,-0.427367193079
8441000000,0.952308090211,0.142523490787,-0.426048232494
8461000000,0.954854823306,0.142019885382,-0.424729268807
8481000000,0.957402392738,0.141519460242,-0.423410618336
8501000000,0.959950735941,0.141022438193,-0.422091790033
8521000000,0.96249974004,0.140528865772,-0.42077310753
8541000000,0.965049434038,0.140038916111,-0.419454092191
8561000000,0.967599760671,0.139552237236,-0.418135068321
8581000000,0.970150988493,0.139068898333,-0.41681619027
8601000000,0.972702806245,0.138589035561,-0.415497458942
8621000000,0.975255318254,0.13811260151,-0.414178556398
8641000000,0.977808583111,0.137639761788,-0.412859788818
8661000000,0.980362372134,0.137170225825,-0.411540595325
8681000000,0.980362348887,0.137170235953,-0.411539375347
8701000000,0.985472250264,0.136241343139,-0.408901649689
8721000000,0.988156322793,0.135757659949,-0.407518679264
8741000000,0.990584772,0.135326369573,-0.406263882957
8761000000,0.993140665543,0.134874562645,-0.404944738158
8781000000,0.995699785866,0.134425255224,-0.403625579653
8801000000,0.998258320844,0.133979727373,-0.402306736789
8821000000,1.00081749116,0.133537643418,-0.400987721623
8841000000,1.00337745655,0.133098934165,-0.399668695451
8861000000,1.00593791554,0.132663725844,-0.398349818829
8881000000,1.00849899171,0.132231964985,-0.397030611496
8901000000,1.01106067781,0.131803839034,-0.395711391339
8921000000,1.01362302366,0.1313789541,-0.394392485687
8941000000,1.01618596423,0.130957523375,-0.393073407747
8961000000,1.01874954208,0.130539527401,-0.391754480207
8981000000,1.02131389327,0.130124909261,-0.390435221994
9001000000,1.02387866586,0.129714004398,-0.389115737133
9021000000,1.02644405922,0.129306340413,-0.387796791579
9041000000,1.02901006247,0.12890230802,-0.386475850242
9061000000,1.03157678204,0.128501672714,-0.385156714097
9081000000,1.03414401553,0.128104517691,-0.383837726193
9101000000,1.03671177059,0.127710649176,-0.382518736786
9122000000,1.03928052677,0.127320063781,-0.381199251728
9141000000,1.04184965942,0.126933009405,-0.379879917746
9161000000,1.04441913261,0.126549498193,-0.378560896896
9181000000,1.04698909083,0.126169470876,-0.37724170602
9201000000,1.04955950452,0.125792937647,-0.375922345118
9221000000,1.05213072,0.125419952447,-0.374603282078
9241000000,1.05470226304,0.125050311564,-0.373282451834
9261000000,1.05470226304,0.125050311564,-0.373282451834
9281000000,1.0598474076,0.12432142572,-0.370644155033
9301000000,1.06242070377,0.123962107293,-0.369324915812
9321000000,1.06499462674,0.123606402145,-0.368005811682
9341000000,1.06756912844,0.123253938133,-0.366686282532
9361000000,1.07014403988,0.122904982206,-0.36536718084
9381000000,1.07271959956,0.122559620518,-0.36404664212
9401000000,1.07271955117,0.122559638921,-0.364046480153
9421000000,1.07787180255,0.121879236536,-0.361408081407
9441000000,1.08044775807,0.121544522284,-0.360088783491
9461000000,1.08302521573,0.121212869311,-0.358769643012
9481000000,1.08560444336,0.120884387196,-0.357450166055
9501000000,1.08818273259,0.120559718485,-0.356130688444
9521000000,1.09076166529,0.120238456357,-0.354811527029
9541000000,1.09334130439,0.119920759071,-0.353492194039
9561000000,1.0959211977,0.119606425166,-0.352173021023
9581000000,1.09850149574,0.119295583028,-0.350853514729
9601000000,1.10108232787,0.118988183053,-0.349534326712
9621000000,1.10366376584,0.118684198412,-0.348214807017
9641000000,1.10366376584,0.118684198412,-0.348214807017
9661000000,1.10882755096,0.118086799844,-0.345576074148
9681000000,1.11141012258,0.117793302071,-0.344256698528
9701000000,1.11399322627,0.11750324228,-0.342937480009
9721000000,1.11657660215,0.117216711995,-0.341617929522
9741000000,1.11916063524,0.116933755352,-0.340298697256
9761000000,1.12174490432,0.116654155219,-0.338979137421
9781000000,1.12432974407,0.116377976779,-0.337659896623
9801000000,1.12691521323,0.116105380624,-0.336340320177
