%time,field.x,field.y,field.theta
3401000000,1.0665118952,0.275415314066,0.407434307493
3421000000,1.05768034442,0.272160291424,0.408548956933
3441000000,1.05765547829,0.272149539317,0.408548977678
3461000000,1.04000340599,0.265609770537,0.41077812173
3482000000,1.0389127901,0.265180395477,0.41085998526
3501000000,1.03065694011,0.262117328637,0.411951696468
3521000000,1.02225316708,0.258974255725,0.412967954485
3541000000,1.01344063525,0.255669812625,0.414082245986
3561000000,1.00465771726,0.252366948217,0.41519658939
3581000000,0.99585223968,0.249042644475,0.416310862316
3601000000,0.987018300703,0.245694181505,0.417425118957
3621000000,0.978220594207,0.242349594956,0.418539280974
3641000000,0.969392511253,0.238980490352,0.419653426684
3661000000,0.960602216256,0.235616617506,0.420767477205
3681000000,0.951791980494,0.232231654569,0.421881514055
3701000000,0.942993896598,0.228841092999,0.422995489706
3721000000,0.934215106952,0.225447609361,0.424109373267
3741000000,0.925434678337,0.222041796767,0.425223221738
3761000000,0.916663598208,0.218628618062,0.426336995901
3781000000,0.907888481575,0.215202004498,0.427450754353
3801000000,0.899125153559,0.211769146526,0.428564419273
3821000000,0.890360681404,0.208324156179,0.429678068557
3841000000,0.88160193686,0.204870167729,0.430791663206
3861000000,0.872850313741,0.201407830215,0.43190516512
3881000000,0.864102611995,0.197935678807,0.433018612887
3901000000,0.855356800172,0.194452772575,0.434132044768
3921000000,0.84661566409,0.19096039711,0.435245422247
3941000000,0.837879791987,0.187458829313,0.436358708037
3961000000,0.837879330625,0.187458614391,0.436358726776
3981000000,0.820417355675,0.18043091596,0.4385851259
4001000000,0.819446483143,0.180020727267,0.438644136616
4021000000,0.811717271053,0.176904480815,0.439677843855
4041000000,0.802673543324,0.17321126983,0.440989305102
4062000000,0.79395804873,0.169660755469,0.442102260168
4081000000,0.785598489061,0.166267284616,0.442999374698
4101000000,0.776890500239,0.162697475322,0.444112288362
4121000000,0.768186203303,0.159117740495,0.4452251861
4140000000,0.768180851177,0.159115189148,0.445225203491
4161000000,0.750780313736,0.15192447483,0.447450783031
4181000000,0.742088537852,0.148315637907,0.448563483174
4201000000,0.733393745791,0.144693638802,0.44967616416
4221000000,0.724705589563,0.141063115399,0.450788791335
4241000000,0.716026099545,0.13742506263,0.451901330724
4261000000,0.707349103694,0.133776497794,0.453013833881
4281000000,0.698676570897,0.130118374275,0.454126283789
4301000000,0.690009455704,0.126451160188,0.455238663611
4321000000,0.681344639876,0.122773331472,0.456351024109
4341000000,0.672685826977,0.119086701813,0.45746329802
4361000000,0.664029998762,0.115389790193,0.458575552402
4381000000,0.655378773374,0.111682919666,0.459687753537
4401000000,0.646732492368,0.107967206121,0.460799869182
4421000000,0.638090145148,0.10424167698,0.461911948499
4442000000,0.629452271072,0.100506600405,0.463023958894
4461000000,0.620818222485,0.0967616534867,0.464135949006
4481000000,0.612188797521,0.0930072347426,0.465247854436
4501000000,0.603563597739,0.0892425564802,0.466359741506
4521000000,0.594942665788,0.0854688177023,0.467471540422
4541000000,0.586325870945,0.0816853631016,0.468583319848
4561000000,0.577713575489,0.0778917863463,0.469695049046
4581000000,0.569105459203,0.0740891049166,0.470806691338
4601000000,0.560501858393,0.0702763093144,0.471918300346
4621000000,0.551902338404,0.0664543591713,0.473029838454
4641000000,0.543307072559,0.0626227516151,0.474141356223
4663000000,0.534716112191,0.0587815130096,0.475252821881
4681000000,0.526129563936,0.0549306981125,0.476364205948
4701000000,0.517547332136,0.0510702576793,0.477475552907
4721000000,0.508969485297,0.0472002269751,0.478586833401
4741000000,0.500395963806,0.0433205750193,0.479698091234
4761000000,0.491826860287,0.0394313497871,0.480809268362
4781000000,0.483262112049,0.0355325185713,0.481920422507
4801000000,0.474701793701,0.0316241202063,0.483031496494
4821000000,0.466145870503,0.027706136454,0.484142547176
4842000000,0.457594609808,0.023778113855,0.485253534052
4861000000,0.449047546969,0.0198409960911,0.48636446606
4882000000,0.449047562751,0.0198410044272,0.486364479772
4901000000,0.440504940076,0.0158943243384,0.487475347844
4921000000,0.423433516124,0.00797135118347,0.489696953213
4941000000,0.41490426866,0.00399601546932,0.490807697584
4961000000,0.406379754174,1.0676059347e-05,0.491918363583
4981000000,0.397859482728,-0.00398373538904,0.49302900135
5001000000,0.389343716123,-0.00798767541106,0.494139562974
5021000000,0.380832421174,-0.0120011616683,0.495250099545
5041000000,0.380832421174,-0.0120011616683,0.495250099545
5061000000,0.379857998172,-0.0124881392235,0.495326069947
5081000000,0.371961858952,-0.0180941119401,0.492511687764
5101000000,0.362722378798,-0.0245144331438,0.489771325386
5121000000,0.353746986442,-0.0307560308711,0.486739141866
5141000000,0.34522812765,-0.0367226520764,0.484519568316
5161000000,0.3361873157,-0.0429272807008,0.481487789913
5181000000,0.327155775572,-0.0490895919113,0.478456148094
5201000000,0.31808499381,-0.0552347814599,0.475424661951
5221000000,0.308996644296,-0.0613497152,0.472393318235
5241000000,0.2999081358,-0.0674274576266,0.469362117021
5261000000,0.290772547861,-0.073493588864,0.466331079816
5281000000,0.2816477456,-0.079517118718,0.463300166032
5301000000,0.272484684751,-0.0855207435261,0.460269420439
5321000000,0.263310985751,-0.0914943855956,0.457238819842
5341000000,0.2541312689,-0.0974340203484,0.454208337855
5361000000,0.244929085,-0.103347712854,0.4511780147
5381000000,0.235709738068,-0.109232861997,0.448147837087
5401000000,0.226475192339,-0.115086699517,0.445117790799
5421000000,0.217218512218,-0.120916182435,0.442087919319
5441000000,0.207945870445,-0.126716525828,0.439058195919
5461000000,0.198658705163,-0.132487071422,0.436028586066
5481000000,0.189351896338,-0.138230199255,0.432999157439
5501000000,0.18002961089,-0.143943971331,0.429969841152
5521000000,0.170688478454,-0.149628108424,0.426940690957
5541000000,0.161331423646,-0.155284904985,0.423911668942
5561000000,0.151956085098,-0.160913595408,0.420882832211
5581000000,0.142563929532,-0.166513508959,0.417854145626
5601000000,0.132684123612,-0.17236324088,0.414675253977
5621000000,0.123727829063,-0.177625993273,0.411797129401
5640000000,0.123727829063,-0.177625993273,0.411797129401
5661000000,0.104826191392,-0.188622033203,0.40574079852
5681000000,0.0953502002894,-0.194077814506,0.402712820728
5701000000,0.0858567130344,-0.199503246545,0.399685035975
5721000000,0.0763468905867,-0.204899625202,0.396657360412
5741000000,0.0668211056775,-0.210268574702,0.39362987813
5761000000,0.0572790934263,-0.215608401545,0.390602505342
5782000000,0.0477206899902,-0.220919163106,0.387575328657
5801000000,0.0381454871114,-0.226199228884,0.384548304378
5821000000,0.0285548934876,-0.231451584634,0.381521389855
5841000000,0.0189482546133,-0.236674699319,0.378494650583
5861000000,0.00932506665311,-0.241866983436,0.375468089332
5881000000,-0.00031330268493,-0.247031441657,0.372441633684
5901000000,-0.00996741852856,-0.252166506273,0.369415332451
5921000000,-0.019637224177,-0.257272144969,0.366389234257
5941000000,-0.0298077690335,-0.262602394054,0.363213058741
5961000000,-0.0390240278104,-0.267393614227,0.360337405197
5981000000,-0.0487403013768,-0.272410451179,0.35731177379
6001000000,-0.0584722837275,-0.277396284044,0.354286299226
6021000000,-0.0682189965369,-0.282354038196,0.35126098266
6041000000,-0.0779808081454,-0.287282075729,0.348235769766
6061000000,-0.0877576552079,-0.292180363319,0.345210740543
6081000000,-0.0877576552079,-0.292180363319,0.345210740543
6101000000,-0.0986627078723,-0.297561524626,0.341951264413
6121000000,-0.0990951334016,-0.297719589271,0.340886752903
6141000000,-0.115534656566,-0.30433632517,0.339073842865
6161000000,-0.134058351174,-0.311729207025,0.337170160062
6181000000,-0.15266325096,-0.319109782967,0.335217059946
6201000000,-0.170372134054,-0.326139234983,0.333712848466
6221000000,-0.189006481872,-0.333449080871,0.331760055238
6241000000,-0.207709036455,-0.340740769168,0.329807403859
6261000000,-0.226429323906,-0.347996807436,0.327854862191
6281000000,-0.245106606208,-0.355196739044,0.325902367861
6301000000,-0.263825254016,-0.36236711018,0.323950010211
6321000000,-0.282530732726,-0.369493743124,0.321997721117
6342000000,-0.301302688911,-0.376601055776,0.320045601946
6361000000,-0.320087523762,-0.383671114682,0.318093584829
6381000000,-0.338835408607,-0.3906856174,0.316141607604
6401000000,-0.357621764333,-0.397673444605,0.31418976754
6421000000,-0.376396510056,-0.404616257102,0.312237998113
6441000000,-0.395234694732,-0.411538202538,0.310286400237
6461000000,-0.414085275879,-0.418422755257,0.30833490884
6481000000,-0.432900727419,-0.425254937404,0.306383452315
6502000000,-0.451753404349,-0.432057724815,0.30443213778
6521000000,-0.470595599775,-0.438816126933,0.302480895821
6541000000,-0.489496782045,-0.445551744696,0.300529827999
6561000000,-0.508365429828,-0.452236211356,0.29857879277
6581000000,-0.508400785333,-0.452247055911,0.298578865612
6601000000,-0.54620238425,-0.465510754534,0.294677128715
6621000000,-0.565110221363,-0.472083914055,0.292726464842
6641000000,-0.584037613465,-0.478622293918,0.290775892159
6661000000,-0.602977640062,-0.485123540274,0.288825421545
6681000000,-0.622871866,-0.491909079723,0.286778475752
6701000000,-0.64089275357,-0.49801204291,0.284924737397
6721000000,-0.659864294558,-0.504399781438,0.282974598199
6741000000,-0.678854180569,-0.510752312056,0.281024594528
6761000000,-0.697851165492,-0.517064090123,0.279074607338
6781000000,-0.716864365366,-0.523339770791,0.277124815888
6803000000,-0.735885486705,-0.52957902668,0.2751750403
6821000000,-0.754921815843,-0.535779850005,0.273225461619
6841000000,-0.773968886658,-0.541945050218,0.271275990126
6861000000,-0.793026475931,-0.548072537722,0.269326532947
6881000000,-0.812096622575,-0.554162878742,0.267377228576
6901000000,-0.831179479313,-0.560214082949,0.265428077825
6921000000,-0.850272875134,-0.566229616785,0.263478940151
6941000000,-0.869378563428,-0.572207923736,0.261530003624
6961000000,-0.888496157785,-0.578146875102,0.259581127134
6981000000,-0.907625199937,-0.584048374966,0.257632310087
7001000000,-0.926765448341,-0.5899143797,0.25568364784
7021000000,-0.945917050556,-0.595742903502,0.253735045184
7041000000,-0.965080776795,-0.601532125848,0.25178664595
7061000000,-0.984255281302,-0.607285738934,0.249838355056
7081000000,-1.00344092351,-0.613001812717,0.247890074797
7101000000,-1.02263829644,-0.618678480854,0.24594195106
7121000000,-1.04184630577,-0.624319500664,0.243993935356
7141000000,-1.06106579566,-0.629921048652,0.24204597853
7161000000,-1.08029631653,-0.635485029343,0.240098228396
7181000000,-1.09953721598,-0.641013292947,0.23815048775
7201000000,-1.11878899226,-0.646503946032,0.236202954831
7221000000,-1.13805147708,-0.651956948351,0.234255430836
7241000000,-1.15828946431,-0.657641396548,0.232211670209
7262000000,-1.17661035526,-0.662746674868,0.2303608483
7281000000,-1.19590368173,-0.668086161436,0.228413762914
7301000000,-1.21520844937,-0.673388419423,0.22646667358
7324000000,-1.23549004236,-0.678916406747,0.224423312164
7341000000,-1.25384957673,-0.683878107357,0.222572865154
7361000000,-1.27318533353,-0.689066871478,0.22062616184
7381000000,-1.29253108792,-0.694218068413,0.218679612656
7399000000,-1.31188704127,-0.699331486257,0.216733069032
7421000000,-1.33125301714,-0.704407084707,0.214786739274
7441000000,-1.35062935785,-0.70944293789,0.212840519912
7461000000,-1.37001554417,-0.714440932555,0.210894305008
7481000000,-1.38941111454,-0.719402964777,0.208948252778
7502000000,-1.40881680208,-0.724325194138,0.207002257608
7521000000,-1.428231736,-0.729211430893,0.20505647884
7542000000,-1.44765623822,-0.73405974308,0.203110811088
7561000000,-1.46709061986,-0.738868201334,0.201165146234
7581000000,-1.48653442558,-0.743638706256,0.199219699857
7601000000,-1.50598717867,-0.748373150913,0.197274255733
7621000000,-1.52544920562,-0.753069606715,0.195328976542
7641000000,-1.54492042865,-0.757728058579,0.193383808199
7661000000,-1.56440076976,-0.762348490154,0.191438695969
7681000000,-1.58389016584,-0.766930888084,0.189493804536
7701000000,-1.60338853418,-0.771475235339,0.187549024561
7721000000,-1.62289579219,-0.775981515171,0.185604245022
7741000000,-1.64241187788,-0.780449714844,0.183659632146
7761000000,-1.6619367074,-0.784879817683,0.181715074945
7781000000,-1.6814702077,-0.789271809194,0.179770739946
7801000000,-1.68377586058,-0.789757593186,0.179555219032
7821000000,-1.68377265788,-0.789761744758,0.179550141954
7841000000,-1.68749720012,-0.792240310818,0.174760945467
7861000000,-1.69086126939,-0.79480669205,0.170175164826
7881000000,-1.69405312533,-0.797326834132,0.167276434151
7902000000,-1.69728749743,-0.799836987344,0.162691356609
7921000000,-1.70068781771,-0.802357856086,0.158106383447
7943000000,-1.70406204231,-0.804856131194,0.153521754599
7961000000,-1.70748574157,-0.807345248418,0.148937317196
7981000000,-1.71086192786,-0.809809854246,0.144353289077
8001000000,-1.7142536199,-0.812259469633,0.139769527649
8021000000,-1.71464211691,-0.812472753239,0.139433770721
8041000000,-1.71462586245,-0.812474847557,0.139240401666
8061000000,-1.7172659119,-0.816222049472,0.131290203152
8081000000,-1.72034597351,-0.820315442395,0.121373928264
8101000000,-1.72320291707,-0.824353227802,0.115983350718
8121000000,-1.72630410627,-0.828389409868,0.107422459433
8141000000,-1.72941447817,-0.832394267638,0.0988585833921
8161000000,-1.73255965358,-0.83637357761,0.0902957718685
8181000000,-1.73576461923,-0.840327415489,0.0817363719969
8201000000,-1.73895712917,-0.844249824737,0.0731687496917
8221000000,-1.74219416115,-0.84814520915,0.0646090179369
8241000000,-1.74550073256,-0.852014330341,0.0560511710017
8261000000,-1.7488276923,-0.855853833673,0.0474934183764
8281000000,-1.75219046552,-0.859664322872,0.0389363164453
8301000000,-1.7555964356,-0.863445651522,0.0303800274087
8321000000,-1.75902033294,-0.867196821251,0.0218239985421
8341000000,-1.76248201289,-0.870918125446,0.0132688415219
8361000000,-1.76598505679,-0.874609154298,0.0047141195532
8381000000,-1.76951665915,-0.878269491924,-0.00384001007344
8401000000,-1.77308308678,-0.881897319077,-0.0123936840883
8421000000,-1.77667614114,-0.885495538248,-0.0209466906014
8441000000,-1.78030197778,-0.889060726341,-0.0295003354971
8461000000,-1.78396147905,-0.892595599361,-0.0380524345476
8481000000,-1.78765040253,-0.896098479384,-0.0466145614266
8501000000,-1.79136966626,-0.899567538548,-0.0551655190364
8521000000,-1.7951197383,-0.903005530278,-0.0637160122883
8541000000,-1.7988981713,-0.906410809562,-0.0722658275828
8561000000,-1.80270634203,-0.909783019307,-0.0808151048052
8581000000,-1.80654442816,-0.913121858338,-0.0893639980249
8601000000,-1.81041091346,-0.916427184187,-0.0979122790637
8622000000,-1.814306234,-0.919698683151,-0.106460100355
8641000000,-1.81822913173,-0.922936220656,-0.115007228118
8661000000,-1.82218005581,-0.926139479537,-0.123553813939
8681000000,-1.82615902105,-0.929308178442,-0.132100021862
8701000000,-1.83016508082,-0.932442167169,-0.140645609025
8721000000,-1.83419814169,-0.935541188961,-0.149190655579
8741000000,-1.83825805447,-0.938604991217,-0.15773524451
8761000000,-1.84234402324,-0.941633429233,-0.166279124238
8781000000,-1.84645637751,-0.944626174873,-0.174822631236
8801000000,-1.8505942052,-0.947583114855,-0.183365424393
8821000000,-1.85475749367,-0.950503981401,-0.191907671313
8841000000,-1.8589461878,-0.953388507313,-0.20044955229
8861000000,-1.86315956933,-0.956236561749,-0.208990800966
8881000000,-1.86739758701,-0.959047880646,-0.217531596311
8901000000,-1.87165953075,-0.961822346892,-0.226071666413
8921000000,-1.87594534453,-0.964559701006,-0.234611188918
8941000000,-1.8802549596,-0.967259679596,-0.24315035418
8962000000,-1.88458766728,-0.96992217951,-0.251688881255
8981000000,-1.88894340162,-0.972546940364,-0.260226959168
9001000000,-1.89332144425,-0.975133876972,-0.268764301182
9021000000,-1.89772158196,-0.977681180198,-0.277301275673
9041000000,-1.90214379849,-0.980191769572,-0.285839079588
9061000000,-1.90658777519,-0.982663848228,-0.294388646175
9081000000,-1.91105262469,-0.985095811164,-0.302924007832
9101000000,-1.91553872401,-0.987490464919,-0.311458722179
9122000000,-1.91553867449,-0.987490481061,-0.311458620543
9141000000,-1.92457209507,-0.992161322697,-0.328526670755
9161000000,-1.92911737006,-0.994437315598,-0.337059593665
9181000000,-1.93368389939,-0.996674978771,-0.345592238618
9201000000,-1.93849977521,-0.998981302731,-0.354550743104
9221000000,-1.94287373424,-1.00103288513,-0.362657366184
9241000000,-1.94749848807,-1.00316854016,-0.371198710848
9261000000,-1.95214408904,-1.00528137961,-0.379749640495
9279000000,-1.95214408904,-1.00528137961,-0.379749640495
9301000000,-1.96149214974,-1.00943933678,-0.396883191278
9321000000,-1.9661953358,-1.01148336584,-0.40546487889
9341000000,-1.97091764164,-1.01350377694,-0.414094513361
9361000000,-1.97565797661,-1.0154948248,-0.422757607773
9381000000,-1.98041505412,-1.01744643149,-0.431357677547
9404000000,-1.98518819774,-1.01935669052,-0.439999010798
9421000000,-1.98997732155,-1.02122534504,-0.448598903651
9441000000,-1.99478136553,-1.02305260284,-0.45728119282
9461000000,-1.99478136553,-1.02305260284,-0.45728119282
9481000000,-2.00443508436,-1.02658127346,-0.474559568518
9501000000,-2.00928328004,-1.02828108544,-0.48315905327
9522000000,-2.01414582064,-1.02994027601,-0.491834161487
9541000000,-2.01902155485,-1.03155568497,-0.500505819362
9561000000,-2.02391074022,-1.03312858543,-0.509104936779
9581000000,-2.02881278439,-1.03465898629,-0.517738880398
9601000000,-2.03372826148,-1.03614801289,-0.526371835384
9621000000,-2.03865589739,-1.03759430694,-0.534970548336
9641000000,-2.04359531438,-1.0389977703,-0.543634680423
9661000000,-2.04854589626,-1.04035845587,-0.552296386048
9681000000,-2.0535079187,-1.04167586732,-0.560894657891
9701000000,-2.05848034616,-1.04295032513,-0.569553099504
9721000000,-2.06346343377,-1.04418133707,-0.578151053724
9741000000,-2.06845635815,-1.04536910446,-0.586777919018
9761000000,-2.07345888049,-1.04651345512,-0.595403901105
9783000000,-2.0784707582,-1.04761421556,-0.60400134528
9801000000,-2.08349122206,-1.04867158062,-0.612653230664
9821000000,-2.08852041416,-1.04968511201,-0.621250312555
9841000000,-2.09355746293,-1.0506550905,-0.629899070702
9861000000,-2.09885492943,-1.05162763442,-0.638927004212
9881000000,-2.10365366717,-1.05246243469,-0.647141494347
9901000000,-2.10871180571,-1.05329946322,-0.655785483112
9921000000,-2.11377767587,-1.05409373603,-0.664381600407
9941000000,-2.11884966189,-1.05484403075,-0.673010200055
9961000000,-2.12392657351,-1.05554899324,-0.681605885379
9981000000,-2.12900973698,-1.05621113001,-0.690243733458
10001000000,-2.13409809637,-1.05682897519,-0.698838966605
10021000000,-2.13944490509,-1.05743032107,-0.707904793468
10041000000,-2.14428567143,-1.05793058034,-0.716105798035
10061000000,-2.14938677104,-1.05841551879,-0.724700290403
10081000000,-2.1544921632,-1.05885570445,-0.733312431991
10101000000,-2.15959901283,-1.05925097053,-0.741906467334
10121000000,-2.1647083682,-1.05960212493,-0.750535450021
10141000000,-2.16982134822,-1.05990979782,-0.759172569354
10161000000,-2.17493632794,-1.06017304799,-0.76778056321
10181000000,-2.18005186791,-1.0603907505,-0.776373612638
10201000000,-2.18516958206,-1.06056522157,-0.784980507863
10221000000,-2.19028819746,-1.06069518476,-0.793586511553
10241000000,-2.19540622334,-1.06077957299,-0.802178754397
10261000000,-2.20052525437,-1.06082074203,-0.810796243077
10281000000,-2.20564413547,-1.06081728931,-0.819387917639
10304000000,-2.20564403166,-1.06081740095,-0.819411254264
10321000000,-2.21587905821,-1.06067745254,-0.836615099157
10342000000,-2.22099469594,-1.06054069113,-0.845205908474
10361000000,-2.22610835739,-1.06035966476,-0.853806330483
10382000000,-2.23121991454,-1.06013410048,-0.862396542179
