%time,field.x,field.y,field.theta
2401000000,0.780197544971,-0.707250645886,-1.0995605627
2421000000,0.778776234286,-0.711851076314,-1.10727976238
2441000000,0.777318954824,-0.716440807859,-1.11499993019
2461000000,0.775825798796,-0.721019578005,-1.1227167849
2481000000,0.774296836856,-0.72558708374,-1.1304374846
2501000000,0.772732162375,-0.73014306562,-1.13815876003
2521000000,0.771131862987,-0.734687248873,-1.14588030858
2541000000,0.769496022851,-0.739219346839,-1.15360233458
2561000000,0.767824734341,-0.743739086605,-1.16132454001
2581000000,0.766118091082,-0.748246194072,-1.1690471299
2601000000,0.764374941948,-0.752740947334,-1.1767703023
2621000000,0.762597879399,-0.757221971458,-1.18449375972
2641000000,0.760785757072,-0.761689550092,-1.19221770416
2661000000,0.758937281494,-0.766143603102,-1.19994186469
2681000000,0.757054059258,-0.770583899268,-1.20766582829
2701000000,0.755137369267,-0.775009478382,-1.21538491742
2721000000,0.753186044037,-0.779420543054,-1.22311043826
2738000000,0.75318591031,-0.779420173783,-1.22311025265
2761000000,0.749179764558,-0.788197572215,-1.23856231488
2781000000,0.747123902706,-0.792563884153,-1.24628904505
2801000000,0.745035142524,-0.796914149412,-1.25401608795
2821000000,0.742912300441,-0.801248509253,-1.26174354172
2841000000,0.740754220595,-0.80556718308,-1.26947149797
2861000000,0.738563517338,-0.809868725707,-1.27719968728
2881000000,0.736339198891,-0.814153886408,-1.28492838222
2901000000,0.734081243383,-0.818421906291,-1.2926574952
2921000000,0.731789896815,-0.822672927571,-1.30038702812
2941000000,0.729465251611,-0.826906564406,-1.30811706751
2955000000,0.729465258253,-0.82690658913,-1.30811689911
2981000000,0.724716554107,-0.83532049576,-1.32357824909
3001000000,0.722292778417,-0.839500296569,-1.3313093169
3021000000,0.719836218977,-0.843661576738,-1.33904106024
3042000000,0.717345703186,-0.847804452393,-1.34677323625
3061000000,0.714822690946,-0.851928312139,-1.35450560268
3081000000,0.712267282495,-0.856032696337,-1.36223839411
3101000000,0.709681069625,-0.8601175392,-1.36997186524
3121000000,0.707062793095,-0.864182578389,-1.37770409219
3131000000,0.704412632268,-0.868227692403,-1.38543844683
3161000000,0.701730725324,-0.872252558608,-1.39317309048
3181000000,0.698881294923,-0.876455688782,-1.40129369781
3201000000,0.6962711614,-0.880240971183,-1.40864382243
3221000000,0.6935107802,-0.884203384475,-1.41637561277
3241000000,0.690752136031,-0.88814398393,-1.42409712099
3261000000,0.68799605415,-0.892062545618,-1.43180889721
3281000000,0.685229115435,-0.895958796523,-1.43950957625
3301000000,0.682295518653,-0.900025714961,-1.4475968628
3322000000,0.679608137954,-0.903686358185,-1.45491711818
3341000000,0.676753383021,-0.907518187869,-1.46262076958
3361000000,0.673868963931,-0.911326267136,-1.47032439201
3381000000,0.670954914224,-0.915110451266,-1.47802749895
3401000000,0.668011641955,-0.918872926707,-1.48573076638
3421000000,0.665039210227,-0.922612364049,-1.49343350705
3441000000,0.662037781059,-0.926328340169,-1.50113643355
3457000000,0.659006185523,-0.930020905011,-1.50883885556
3481000000,0.655947324565,-0.933689494081,-1.51654144391
3501000000,0.652860015897,-0.937334082394,-1.52424069214
3522000000,0.649744446734,-0.940954413403,-1.53194297878
3541000000,0.649744441654,-0.940954281863,-1.53194262469
3552000000,0.643427916369,-0.948121418837,-1.54734675082
3581000000,0.64022869792,-0.951667784226,-1.55504824108
3601000000,0.637001974939,-0.955189041456,-1.56274994623
3621000000,0.633747941705,-0.958684746716,-1.57045116143
3641000000,0.633498967054,-0.959080953771,-1.57127943484
3661000000,0.633494406493,-0.959082938136,-1.57128398037
3681000000,0.633490357627,-0.95920153752,-1.57402874256
3701000000,0.633486367331,-0.959203565249,-1.57403175187
3721000000,0.632511353389,-0.953631458662,-1.57641729849
3741000000,0.631461930658,-0.947572929579,-1.57803342368
3761000000,0.630427988627,-0.941299023852,-1.5806016321
3781000000,0.629410422276,-0.935017550589,-1.58316965937
3801000000,0.6284094936,-0.928710150173,-1.58573751981
3821000000,0.627424586552,-0.922427960968,-1.58830529817
3841000000,0.626456996461,-0.916088579204,-1.59087276241
3862000000,0.626456996461,-0.916088579204,-1.59087276241
3881000000,0.624571040681,-0.903457903344,-1.5960073926
3901000000,0.623653142758,-0.897114477296,-1.59857435109
3921000000,0.622750295953,-0.890819592277,-1.60114133138
3943000000,0.621864546154,-0.884498819308,-1.6037080744
3961000000,0.620995291628,-0.87817785019,-1.6062746555
3981000000,0.620136945184,-0.87187580873,-1.60884320634
4001000000,0.619282976401,-0.8655362727,-1.61141691937
4021000000,0.618430314251,-0.85922952719,-1.61399659947
4042000000,0.617581530388,-0.852896920359,-1.61658166622
4061000000,0.61673506051,-0.846570510876,-1.61917266915
4081000000,0.615890268579,-0.840256841487,-1.62177002751
4101000000,0.615048417541,-0.833935626367,-1.62437306589
4121000000,0.614209271031,-0.827613181017,-1.62698192289
4141000000,0.613377370467,-0.821292860693,-1.62959522658
4161000000,0.612562057595,-0.814964276102,-1.63219690208
4181000000,0.611763276394,-0.808635968386,-1.6347887551
4201000000,0.61098172114,-0.802309697516,-1.63740247972
4221000000,0.61021689615,-0.795980147651,-1.64000573328
4241000000,0.61021689615,-0.795980147651,-1.64000573328
4261000000,0.608736213104,-0.78331623596,-1.64521273151
4281000000,0.608020628046,-0.776981364246,-1.64780667171
4301000000,0.607321512176,-0.770645951199,-1.65042057009
4321000000,0.606639100618,-0.764308375474,-1.65302474191
4341000000,0.605973322842,-0.757969628509,-1.65563870476
4361000000,0.605324278816,-0.751628600859,-1.65823368253
4381000000,0.604691896285,-0.745286263654,-1.66082926662
4401000000,0.60407616112,-0.7389428422,-1.66344332296
4421000000,0.603477129846,-0.73259778713,-1.6660483993
4441000000,0.602894788139,-0.726251347118,-1.66865364329
4461000000,0.602329132059,-0.719903643079,-1.67126778924
4481000000,0.601780194305,-0.713554426342,-1.67386462416
4501000000,0.601248774132,-0.707204051349,-1.67646205923
4521000000,0.60073323477,-0.700852457378,-1.67907628527
4541000000,0.600234409168,-0.694499620351,-1.68168265427
4561000000,0.600234412726,-0.694499587907,-1.68167452503
4581000000,0.599286903605,-0.681790527474,-1.68690312485
4601000000,0.598838236955,-0.675434301858,-1.68950164436
4622000000,0.598406288968,-0.669077097536,-1.69211601028
4641000000,0.597991073358,-0.662718867514,-1.69471507184
4661000000,0.597592589074,-0.656359689092,-1.69731463149
4681000000,0.597210834147,-0.649999643035,-1.69992907288
4701000000,0.596845817715,-0.643638721364,-1.70252914108
4722000000,0.596497538213,-0.637276999491,-1.70514363061
4741000000,0.596166001768,-0.63091449301,-1.70775111311
4761000000,0.595851207357,-0.624551270351,-1.71036564904
4781000000,0.595851210942,-0.624551244538,-1.71035191677
4801000000,0.595272567601,-0.611822888693,-1.71558108076
4821000000,0.595008271431,-0.605456733173,-1.71818236044
4841000000,0.594760326433,-0.59909202863,-1.72078409033
4852000000,0.594529280981,-0.592725820175,-1.7233987347
4881000000,0.594314992637,-0.586359132496,-1.72600710875
4901000000,0.594117458747,-0.579992036326,-1.72862179348
4921000000,0.593936685063,-0.573624547417,-1.73122421561
4941000000,0.593772670755,-0.567256723051,-1.73382704673
4961000000,0.59362541416,-0.560888623965,-1.73644178875
4981000000,0.59349492088,-0.554520265957,-1.73905074588
5001000000,0.593381187708,-0.548151717414,-1.74166552391
5015000000,0.593284220185,-0.541782994171,-1.74426899319
5041000000,0.593204016117,-0.53541415697,-1.74687284495
5061000000,0.593141384216,-0.529045405078,-1.74948767985
5081000000,0.593094710798,-0.522676468211,-1.75209199252
5101000000,0.593065612154,-0.516307709273,-1.75470684971
5120000000,0.59306561258,-0.516307706966,-1.75470164008
5141000000,0.593056891721,-0.503570271445,-1.75993140777
5161000000,0.593077267143,-0.497201712747,-1.76253608662
5181000000,0.59311441408,-0.490833312018,-1.76515100536
5201000000,0.593114424884,-0.490833256711,-1.76514124431
5221000000,0.593239829456,-0.478097329229,-1.7703618891
5241000000,0.59332726919,-0.471729767327,-1.77297684672
5261000000,0.593431472663,-0.465362569281,-1.77558721833
5281000000,0.59355244027,-0.458995773662,-1.77819768344
5301000000,0.593690976624,-0.45262961255,-1.78081267405
5321000000,0.59384546506,-0.446263769133,-1.78341887322
5341000000,0.594027097126,-0.439579853128,-1.78616340194
5361000000,0.594206243777,-0.433533990931,-1.78864037421
5381000000,0.594411108113,-0.427169943598,-1.79125538261
5401000000,0.594632624988,-0.420806548154,-1.79387042517
5421000000,0.594870879493,-0.414443941628,-1.79647321291
5441000000,0.595125905566,-0.408082010744,-1.7990805078
5461000000,0.595397678305,-0.40172090125,-1.80169557525
5481000000,0.5956862022,-0.395360629307,-1.80430687395
5501000000,0.595991469511,-0.389001262977,-1.80692195575
5523000000,0.595991472952,-0.389001248591,-1.80691461121
5541000000,0.596652930266,-0.376285539312,-1.8121448188
5561000000,0.597008783482,-0.369928096519,-1.81475282685
5581000000,0.597380764647,-0.363573746288,-1.81736111725
5601000000,0.597380764647,-0.363573746288,-1.81736111725
5621000000,0.598177024846,-0.350866818145,-1.82258803129
5641000000,0.598599449518,-0.344514933212,-1.82520314711
5661000000,0.599038600545,-0.338164287739,-1.82781172482
5681000000,0.599038603989,-0.338164274564,-1.82780859268
5701000000,0.599967791418,-0.325466952677,-1.83303581514
5721000000,0.600458210748,-0.319119606235,-1.83564793258
5741000000,0.600964232473,-0.312774379846,-1.83826306462
5761000000,0.601486681599,-0.306431642318,-1.84087232583
5781000000,0.602026122686,-0.300089360396,-1.84348189564
5801000000,0.602583055171,-0.293748872933,-1.84609702812
5821000000,0.603155889168,-0.287409753743,-1.84870676846
5841000000,0.603745416033,-0.281072277791,-1.85132190176
5861000000,0.604351639206,-0.274736459362,-1.85393193595
5881000000,0.604974540568,-0.268402389977,-1.85654706682
5901000000,0.605614126426,-0.262070076325,-1.85915973294
5920000000,0.605614126426,-0.262070076325,-1.85915973294
5941000000,0.606943317832,-0.24941094429,-1.86438757662
5961000000,0.607632918907,-0.243084196791,-1.86699804725
5983000000,0.608339177265,-0.236759407981,-1.86961316487
6000000000,0.60833918456,-0.236759384186,-1.86960873003
6021000000,0.609802458172,-0.224116046649,-1.87483465946
6041000000,0.610558671838,-0.217797349729,-1.87744976403
6061000000,0.611331530578,-0.211480758781,-1.88006282952
6082000000,0.612121021376,-0.205166341092,-1.88267792301
6101000000,0.612927936944,-0.198854356099,-1.88528910384
6121000000,0.613750683705,-0.192544386098,-1.88790037324
6141000000,0.614590048064,-0.186236713857,-1.8905154471
6161000000,0.615446029208,-0.179931365343,-1.89312872233
6181000000,0.616318613249,-0.173628407673,-1.89574378079
6201000000,0.617207806287,-0.167327847823,-1.89835538819
6221000000,0.618113585397,-0.161029778647,-1.9009704296
6241000000,0.619035957289,-0.154734205061,-1.90358220001
6261000000,0.619974914635,-0.14844117407,-1.90619410247
6281000000,0.620930438177,-0.142150763749,-1.9088091151
6301000000,0.621902537671,-0.13586297158,-1.91142259102
6321000000,0.622891203057,-0.129577851905,-1.91403608175
6341000000,0.623896409984,-0.123295489836,-1.91665106295
6361000000,0.624918196324,-0.117015805071,-1.91926300151
6381000000,0.625956520239,-0.110738944455,-1.9218744158
6402000000,0.627011347471,-0.10446502177,-1.92448936035
6421000000,0.628083483599,-0.0981942608512,-1.92710222425
6441000000,0.629171353415,-0.0919261804245,-1.92971714206
6461000000,0.630275750511,-0.0856610422472,-1.93232695407
6481000000,0.631396639352,-0.0793989619203,-1.93493632974
6501000000,0.632534016582,-0.0731402621185,-1.93755120432
6521000000,0.633687883848,-0.0668843731602,-1.94016299055
6541000000,0.634858229095,-0.0606316430741,-1.94277448744
6562000000,0.636045039747,-0.0543821278884,-1.94538931731
6581000000,0.637248311159,-0.0481358608834,-1.9479961045
6601000000,0.63846803741,-0.0418928796039,-1.95061089921
6621000000,0.63970421165,-0.0356532235191,-1.95321612117
6641000000,0.640956821717,-0.0294169431507,-1.95582077138
6661000000,0.642225856594,-0.0231840857231,-1.95843550998
6681000000,0.643511310231,-0.0169546852161,-1.96104525632
6701000000,0.644813178414,-0.0107287757165,-1.96365014752
6721000000,0.646131440287,-0.00450642860686,-1.96626482863
6741000000,0.647466107147,0.00171236358998,-1.96886979784
6761000000,0.648817902673,0.00792717065665,-1.97148443852
6781000000,0.65018531283,0.0141386338661,-1.97409434319
6802000000,0.6515690801,0.0203463661,-1.97670894161
6821000000,0.65296921039,0.0265503624681,-1.97931434281
6841000000,0.654385672319,0.0327505301299,-1.98192889732
6861000000,0.654385683174,0.0327505551087,-1.98192008902
6881000000,0.657267601143,0.0451393239534,-1.98714066505
6901000000,0.658733029948,0.0513278239849,-1.98975515046
6921000000,0.660214761957,0.0575123526016,-1.99236550635
6941000000,0.661712783867,0.0636928607008,-1.99497994352
6961000000,0.663227089462,0.0698693152696,-1.9975863944
6982000000,0.664757662278,0.0760416608602,-2.00020078162
7001000000,0.666304501584,0.0822098768787,-2.00280750928
7021000000,0.666304503054,0.0822098800774,-2.00280381325
7039000000,0.667867585167,0.0883738959949,-2.00541453243
7061000000,0.671043947011,0.100688497884,-2.01063958433
7081000000,0.672656453825,0.10683934298,-2.01325383915
7101000000,0.674284419595,0.112986186694,-2.01586118836
7121000000,0.675928578071,0.119128629933,-2.01846883793
7141000000,0.677588914196,0.125266624388,-2.02108300814
7161000000,0.679265420835,0.131400137247,-2.02369399632
7181000000,0.680958826229,0.137528760214,-2.02630810806
7201000000,0.682667636457,0.143653180224,-2.0289161052
7222000000,0.684393321553,0.149772624676,-2.03152434914
7241000000,0.686134383007,0.155887772912,-2.03413836976
7261000000,0.686134384577,0.155887776063,-2.03413556708
7281000000,0.689665560689,0.168103572205,-2.03936351441
7301000000,0.691455651877,0.174204141059,-2.04197208059
7321000000,0.693261077124,0.180300258758,-2.04458086205
7341000000,0.695082558234,0.18639150534,-2.04719472244
7361000000,0.696920086785,0.192477848615,-2.04980611532
7381000000,0.698774381606,0.198558864589,-2.05241754273
7401000000,0.700644693229,0.204634885611,-2.05503130189
7421000000,0.702530282433,0.210706261411,-2.05764047789
7441000000,0.704431862169,0.216772556404,-2.06025416738
7461000000,0.706349425234,0.222833741626,-2.06286354404
7481000000,0.708282951502,0.228889762858,-2.06547716222
7501000000,0.708282954839,0.228889769058,-2.06547316363
7521000000,0.712198993778,0.240986778351,-2.07069658107
7541000000,0.714180432152,0.247027024472,-2.07331006422
7561000000,0.716177176102,0.253061064972,-2.07592004557
7581000000,0.718191051656,0.259090273716,-2.07853347805
7601000000,0.720220090308,0.26511447914,-2.08114357656
7621000000,0.722264994805,0.27113322862,-2.08375693169
7641000000,0.724325755522,0.277146490318,-2.08636871043
7661000000,0.726402354495,0.283154216646,-2.08898198661
7681000000,0.726644478414,0.283813935281,-2.08919092979
7701000000,0.726639807742,0.28381433878,-2.08919468772
7721000000,0.725688199784,0.287453434801,-2.09608810596
7741000000,0.724507579046,0.291161264803,-2.09982201991
7761000000,0.723417343078,0.294989282418,-2.10643450327
7781000000,0.722339625426,0.298802301951,-2.11304874199
7801000000,0.721300663812,0.30264386155,-2.1196609801
7821000000,0.720267349798,0.306459547799,-2.12627663747
7841000000,0.719266317963,0.310292724448,-2.13289154935
7861000000,0.718304432534,0.314153394883,-2.13950343077
7881000000,0.717359685231,0.318006550428,-2.14611759484
7901000000,0.716449532406,0.321879009468,-2.15272922704
7921000000,0.715559663364,0.325748577859,-2.15934262859
7941000000,0.714701426591,0.329632113145,-2.16595400079
7961000000,0.713867176274,0.333517924646,-2.17256595856
7981000000,0.713865540978,0.333515548752,-2.17256641751
8001000000,0.712279331519,0.341308270192,-2.1857884814
8021000000,0.711522343138,0.345207540546,-2.19239989705
8041000000,0.710793692733,0.349114473061,-2.19901085378
8061000000,0.710092110087,0.353027006715,-2.2056213877
8081000000,0.709416188566,0.356942996657,-2.21223178298
8101000000,0.708767080411,0.36086378665,-2.21884201678
8121000000,0.708143312579,0.364787223714,-2.2254521371
8145000000,0.707546792423,0.368715581461,-2.23206205204
8161000000,0.706975542112,0.372646114773,-2.23867185162
8181000000,0.706431284763,0.376579346105,-2.24528149843
8201000000,0.705914522787,0.380517159265,-2.2518909315
8221000000,0.705423096025,0.384458130088,-2.25850023509
8241000000,0.704958416614,0.388402329031,-2.26510932968
8261000000,0.704520192514,0.392349195529,-2.27171829631
8281000000,0.704108391775,0.396298495328,-2.2783270459
8301000000,0.703723118361,0.400250155304,-2.2849356392
8321000000,0.703364259141,0.404203851607,-2.29154403226
8341000000,0.703032132937,0.408159753629,-2.29815230256
8361000000,0.702726268897,0.412117140276,-2.30476032886
8382000000,0.702447048076,0.416076250131,-2.31136820516
8401000000,0.702194221226,0.420036622404,-2.31797585467
8421000000,0.701967972984,0.423998273596,-2.32458333004
8441000000,0.701768216113,0.427960926187,-2.33119059283
8461000000,0.701595061343,0.431924514065,-2.33779769288
8481000000,0.701448398394,0.43588874075,-2.3444045591
8501000000,0.701328306204,0.439853507963,-2.35101125569
8521000000,0.701234723134,0.443818574668,-2.3576177459
8541000000,0.701167724345,0.447783838694,-2.36422399899
8561000000,0.701124784312,0.451947139204,-2.37116162674
8581000000,0.701113830041,0.455713462728,-2.37743593163
8601000000,0.701126509365,0.459676818219,-2.3840415407
8621000000,0.701165725183,0.463641002001,-2.39064693682
8641000000,0.701232816535,0.467604432418,-2.39725213569
8661000000,0.701325114525,0.471567009777,-2.40385710483
8682000000,0.70144393843,0.475528511208,-2.41046604228
8701000000,0.701589902366,0.479488081379,-2.41707056304
8722000000,0.701761707003,0.483446869993,-2.42367486292
8741000000,0.701960653031,0.487403396156,-2.43027894255
8761000000,0.702185518251,0.491358876794,-2.4368827578
8781000000,0.702436834984,0.495312389018,-2.44348635125
8801000000,0.702714635208,0.499263794876,-2.4500896999
8821000000,0.703018773086,0.503212811373,-2.45669282461
8841000000,0.703349452304,0.507159443547,-2.46329569199
8861000000,0.703706373797,0.511103289099,-2.46989832842
8881000000,0.704089777071,0.515044380402,-2.47650071088
8901000000,0.704500130159,0.518981742218,-2.48310283409
8921000000,0.704936260704,0.522916662355,-2.4897047235
8941000000,0.705398804319,0.526848291667,-2.49630634892
8961000000,0.705887477777,0.530776263171,-2.5029077255
8981000000,0.706402610099,0.534700666483,-2.50950883714
9001000000,0.706943838475,0.538621079119,-2.51610969421
9021000000,0.707511454921,0.542537558493,-2.52271028424
9041000000,0.708105098144,0.546449692506,-2.52931061297
9061000000,0.708724915039,0.550357434343,-2.53591067322
9081000000,0.709371041181,0.554260723544,-2.54251046482
9101000000,0.710043705986,0.558158443946,-2.54910999371
9121000000,0.71074202258,0.562052075467,-2.55570923597
9141000000,0.711466273995,0.565940547654,-2.56230820546
9162000000,0.712217128021,0.569823043598,-2.5689069111
9182000000,0.712993846031,0.573700036455,-2.57550532612
9201000000,0.713796608514,0.577571484948,-2.58210344086
9221000000,0.714624782589,0.581437958454,-2.58870202553
9241000000,0.715479211859,0.585297638008,-2.5953061457
9261000000,0.716359502201,0.589151224394,-2.60190343164
9281000000,0.717265048276,0.592999287137,-2.60850041217
9301000000,0.71819635303,0.596840905591,-2.61509711427
9321000000,0.719153333028,0.600675885885,-2.62169351047
9341000000,0.720135951544,0.604504063043,-2.62828962651
9361000000,0.721143855104,0.608325097429,-2.63488542854
9381000000,0.722178054575,0.612138346071,-2.64148093623
9401000000,0.723237013889,0.615944947687,-2.64807639091
9421000000,0.724321867179,0.619743253369,-2.65467442754
9441000000,0.725431932877,0.623534877841,-2.66126905151
9461000000,0.726567268583,0.627318643559,-2.66787190407
